PPG A0,PPG A1,event_code
326,303,
325,309,
324,324,
320,339,
323,356,
323,377,
322,405,
323,437,
323,474,
323,517,
322,561,
324,611,
326,667,
326,723,
328,783,
328,840,
331,899,
333,958,
335,992,
336,993,
337,993,
340,993,
343,993,
345,993,
344,992,
348,993,
352,992,
352,992,
353,992,
354,992,
356,992,
357,993,
357,992,
359,992,
358,992,
360,991,
362,992,
362,992,
360,992,
360,992,
360,992,
356,992,
359,992,
355,993,
354,992,
352,993,
352,992,
349,992,
348,992,
346,992,
341,991,
343,992,
340,992,
337,992,
335,992,
334,986,
335,913,
335,851,
334,790,
334,727,
332,667,
329,604,
333,547,
332,492,
329,440,
330,391,
331,345,
328,304,
328,269,
327,240,
327,211,
327,188,
328,170,
327,154,
327,147,
326,141,
327,136,
329,138,
329,144,
329,152,
328,165,
331,177,
330,192,
332,211,
330,232,
328,256,
329,277,
328,298,
329,324,
330,349,
329,372,
330,394,
330,415,
330,436,
329,455,
330,473,
329,490,
330,503,
331,516,
333,528,
330,537,
331,546,
335,549,
335,553,
334,556,
335,556,
334,553,
335,549,
332,542,
335,536,
332,527,
335,517,
335,506,
334,494,
334,484,
332,472,
333,459,
333,445,
332,431,
332,417,
333,406,
331,391,
330,375,
333,364,
329,351,
330,340,
328,328,
324,316,
329,305,
327,296,
326,287,
327,278,
328,270,
329,261,
330,256,
329,252,
327,247,
329,243,
331,238,
333,238,
331,237,
332,235,
333,233,
333,233,
335,232,
334,235,
332,237,
334,239,
330,240,
332,243,
331,247,
332,251,
329,254,
331,257,
331,260,
329,265,
328,269,
329,270,
325,271,
327,274,
329,277,
327,283,
328,285,
327,287,
328,289,
332,294,
330,298,
331,299,
334,303,
333,304,
332,308,
333,316,
330,322,
331,331,
331,343,
333,359,
332,380,
331,403,
330,431,
332,463,
330,504,
330,547,
329,597,
331,646,
329,701,
331,759,
329,819,
331,878,
331,937,
332,991,
335,992,
330,992,
333,992,
337,992,
338,993,
339,992,
338,992,
340,992,
343,992,
342,992,
344,992,
345,992,
348,992,
344,992,
349,992,
351,992,
352,992,
352,992,
354,992,
353,992,
353,992,
353,992,
353,992,
351,992,
352,993,
353,992,
350,993,
349,992,
346,992,
347,992,
347,992,
348,992,
345,992,
343,992,
344,992,
343,992,
342,933,
342,872,
338,809,
338,743,
335,680,
334,621,
336,562,
333,505,
332,450,
332,397,
331,352,
330,309,
328,271,
326,236,
329,205,
325,180,
325,159,
325,143,
325,130,
326,121,
324,119,
325,121,
321,125,
321,134,
322,147,
324,162,
322,184,
323,204,
324,225,
326,249,
323,275,
327,302,
323,329,
325,356,
325,381,
325,407,
327,432,
325,459,
327,482,
326,502,
327,522,
327,541,
329,559,
330,573,
330,583,
331,591,
331,600,
331,608,
331,608,
333,608,
331,604,
333,603,
333,598,
331,592,
333,579,
333,571,
335,560,
334,548,
332,534,
333,519,
336,503,
335,486,
336,472,
336,456,
335,439,
335,423,
332,408,
334,396,
335,381,
333,367,
333,354,
332,341,
333,331,
331,320,
328,310,
331,298,
330,289,
332,283,
329,273,
330,266,
331,260,
332,254,
332,252,
331,248,
331,245,
332,241,
333,239,
334,240,
332,238,
333,237,
332,237,
334,239,
331,241,
329,243,
331,243,
330,245,
328,247,
324,251,
326,254,
326,256,
324,258,
324,262,
325,262,
323,267,
320,269,
321,272,
322,274,
324,280,
324,283,
324,288,
322,291,
325,295,
325,302,
325,310,
326,321,
326,332,
327,346,
326,367,
328,392,
327,419,
327,448,
328,484,
326,526,
325,570,
328,618,
330,668,
329,723,
332,780,
333,836,
336,894,
335,949,
339,992,
338,993,
342,992,
343,992,
346,992,
349,992,
350,992,
347,993,
350,991,
350,992,
352,992,
353,992,
351,992,
353,992,
354,993,
351,992,
353,992,
351,992,
350,992,
348,992,
349,992,
351,992,
348,992,
348,993,
346,993,
344,993,
344,993,
345,993,
343,993,
341,992,
342,992,
340,992,
339,992,
339,992,
336,952,
336,890,
337,832,
333,774,
329,716,
332,657,
330,599,
330,543,
327,492,
328,442,
327,395,
326,351,
326,310,
326,276,
328,247,
326,219,
329,196,
329,176,
326,165,
330,155,
328,152,
329,147,
332,148,
332,157,
332,168,
329,178,
329,193,
329,207,
330,226,
328,248,
328,267,
327,291,
330,312,
330,335,
327,358,
325,381,
323,402,
329,424,
327,444,
327,462,
327,479,
326,494,
326,509,
327,520,
328,532,
326,538,
326,546,
325,550,
326,551,
329,552,
328,553,
324,548,
326,545,
329,537,
328,531,
329,523,
327,514,
331,502,
328,495,
330,486,
327,475,
331,463,
334,450,
334,438,
331,430,
331,418,
328,407,
331,394,
334,383,
332,372,
334,363,
332,356,
334,346,
336,336,
334,330,
335,325,
335,318,
335,312,
336,308,
336,305,
335,301,
335,297,
330,293,
334,291,
332,289,
330,290,
330,289,
330,286,
330,286,
331,288,
326,290,
329,291,
329,292,
330,292,
330,294,
331,298,
331,298,
331,301,
331,301,
332,302,
332,302,
332,305,
335,307,
334,306,
332,305,
332,307,
332,308,
332,308,
333,308,
335,305,
332,308,
334,309,
333,312,
334,314,
333,316,
333,322,
331,330,
333,342,
331,356,
330,375,
331,400,
330,429,
331,464,
331,501,
332,546,
333,596,
330,650,
334,708,
333,768,
335,829,
334,892,
338,957,
337,992,
338,993,
342,992,
344,992,
345,992,
346,993,
349,992,
350,992,
354,992,
356,992,
354,992,
357,992,
359,992,
361,993,
359,992,
357,992,
358,993,
359,992,
361,992,
360,992,
359,992,
360,992,
358,992,
359,992,
353,992,
355,992,
351,992,
351,993,
350,992,
348,992,
343,992,
344,993,
344,993,
342,992,
339,993,
334,992,
335,992,
334,992,
334,992,
333,992,
334,992,
334,918,
332,850,
336,781,
330,716,
332,649,
332,584,
324,524,
329,465,
328,412,
328,365,
329,322,
325,283,
329,248,
329,219,
327,196,
324,178,
325,163,
325,154,
325,148,
324,145,
321,149,
323,156,
324,163,
327,177,
325,194,
324,213,
327,231,
329,251,
328,272,
329,296,
327,318,
328,341,
330,363,
331,386,
332,409,
333,429,
330,448,
332,464,
331,482,
330,496,
331,510,
331,520,
332,529,
329,535,
331,542,
328,545,
329,546,
330,547,
333,542,
329,539,
334,534,
329,526,
333,516,
332,506,
334,497,
329,484,
331,472,
334,462,
333,449,
334,437,
334,426,
335,414,
330,401,
333,389,
334,377,
333,366,
333,355,
332,344,
335,334,
333,326,
336,318,
335,310,
337,305,
337,296,
337,293,
337,289,
334,284,
335,281,
336,278,
332,278,
335,280,
332,280,
333,280,
332,281,
330,282,
331,287,
328,289,
328,293,
327,296,
326,298,
325,303,
326,308,
324,312,
328,315,
328,317,
329,324,
328,326,
328,330,
331,334,
329,336,
331,342,
335,348,
334,353,
336,357,
338,363,
336,372,
337,382,
336,394,
336,409,
336,427,
333,448,
333,478,
333,510,
332,547,
331,590,
330,639,
329,695,
328,753,
328,814,
331,879,
332,947,
334,992,
335,992,
338,992,
339,992,
345,992,
345,992,
346,992,
351,992,
357,992,
359,993,
364,992,
366,992,
366,993,
370,993,
373,992,
372,992,
375,992,
375,992,
376,993,
375,993,
379,992,
378,992,
376,992,
378,992,
381,992,
378,992,
379,992,
376,992,
377,992,
375,993,
374,992,
371,993,
367,992,
364,992,
361,992,
360,992,
358,992,
351,993,
348,993,
352,992,
349,992,
342,992,
342,992,
337,992,
336,993,
333,992,
330,993,
328,992,
326,992,
326,992,
323,992,
322,992,
320,992,
319,993,
318,992,
319,993,
316,992,
317,992,
318,992,
319,934,
321,882,
317,834,
317,787,
318,746,
322,705,
324,673,
323,643,
322,615,
324,593,
324,570,
324,552,
322,542,
321,531,
323,522,
320,515,
323,510,
324,509,
325,508,
324,508,
324,508,
330,508,
329,510,
327,512,
329,511,
332,511,
333,509,
335,510,
335,508,
334,506,
335,500,
335,493,
335,490,
333,485,
334,478,
339,467,
339,460,
339,449,
339,441,
339,429,
337,415,
339,401,
339,389,
337,376,
337,363,
336,347,
337,329,
334,315,
334,300,
331,283,
330,265,
331,246,
330,229,
329,212,
328,195,
327,179,
329,162,
329,147,
327,131,
326,117,
329,104,
330,91,
330,80,
329,67,
331,60,
330,52,
329,44,
329,37,
333,32,
329,29,
330,27,
328,23,
331,21,
331,20,
328,21,
328,23,
326,20,
329,24,
329,28,
327,33,
328,37,
326,41,
327,45,
326,54,
325,60,
322,67,
324,72,
324,78,
323,86,
320,94,
320,102,
321,111,
320,120,
323,128,
324,141,
324,154,
324,169,
323,183,
325,201,
325,224,
326,250,
327,281,
327,316,
326,354,
328,400,
329,449,
328,503,
328,559,
331,622,
332,688,
331,755,
329,823,
330,892,
333,958,
333,992,
335,993,
334,993,
339,992,
339,992,
340,992,
342,992,
344,993,
344,992,
344,993,
347,993,
347,992,
349,992,
349,992,
352,992,
351,992,
352,992,
351,992,
351,993,
351,992,
352,992,
353,992,
349,993,
350,992,
349,992,
349,992,
347,992,
345,992,
346,992,
347,992,
347,992,
344,992,
344,992,
340,992,
344,992,
341,992,
338,992,
339,949,
337,875,
337,800,
336,727,
336,654,
334,583,
331,513,
334,447,
332,384,
331,328,
330,277,
326,229,
333,186,
331,146,
329,116,
328,89,
325,65,
327,50,
328,34,
326,28,
324,24,
326,24,
322,30,
326,38,
321,50,
325,66,
322,84,
324,104,
327,126,
325,151,
326,176,
324,202,
325,229,
324,254,
327,280,
324,305,
328,328,
329,353,
330,374,
329,393,
332,413,
332,430,
328,440,
332,453,
333,463,
333,473,
331,480,
330,483,
329,483,
332,483,
331,480,
328,475,
326,469,
330,460,
329,450,
329,440,
326,428,
328,416,
328,401,
328,385,
330,372,
330,358,
331,344,
334,329,
333,310,
333,298,
330,284,
332,270,
330,258,
332,244,
334,232,
332,220,
331,211,
331,201,
331,189,
333,184,
333,176,
331,170,
333,166,
334,160,
333,157,
330,155,
330,154,
330,155,
333,152,
328,155,
331,158,
327,160,
329,161,
329,165,
330,169,
329,172,
328,176,
328,181,
327,185,
328,191,
329,195,
330,202,
330,206,
329,211,
330,216,
329,222,
327,228,
327,231,
327,236,
327,241,
328,244,
326,249,
326,253,
328,258,
328,262,
330,264,
328,269,
329,273,
329,276,
328,278,
329,283,
331,291,
329,297,
330,306,
332,314,
331,332,
332,352,
331,373,
332,400,
331,429,
332,466,
333,507,
329,550,
328,600,
329,650,
330,704,
328,760,
327,819,
327,878,
331,933,
332,987,
329,992,
333,992,
331,992,
333,992,
333,992,
336,992,
338,993,
336,992,
338,992,
343,993,
341,992,
345,992,
344,992,
346,992,
347,992,
349,992,
349,992,
351,992,
350,992,
352,992,
351,992,
351,992,
349,993,
353,993,
353,992,
349,992,
350,992,
347,992,
350,992,
348,992,
346,993,
344,992,
343,949,
345,888,
341,822,
340,760,
342,698,
337,637,
340,574,
340,514,
336,456,
341,402,
335,351,
334,303,
335,256,
335,215,
334,177,
333,144,
330,116,
334,91,
331,72,
332,59,
328,47,
328,40,
328,38,
328,42,
326,48,
325,55,
324,69,
325,86,
324,107,
325,128,
324,154,
323,180,
324,206,
326,235,
321,266,
324,295,
325,325,
323,352,
326,381,
327,409,
325,437,
327,460,
327,483,
330,503,
329,522,
328,541,
326,554,
328,568,
328,575,
331,583,
330,591,
330,593,
328,593,
332,591,
329,588,
331,582,
329,575,
330,566,
331,554,
332,544,
332,530,
331,517,
332,502,
332,487,
330,471,
329,458,
331,444,
331,426,
331,411,
331,397,
331,381,
331,367,
330,353,
331,339,
333,326,
331,315,
329,303,
332,292,
333,281,
330,273,
333,264,
333,257,
333,250,
334,243,
337,238,
336,232,
336,230,
335,226,
335,223,
335,222,
334,222,
335,222,
333,222,
334,220,
335,220,
334,223,
333,224,
332,223,
334,226,
334,227,
334,230,
333,235,
334,236,
333,239,
334,241,
332,247,
333,253,
332,257,
332,260,
332,271,
331,280,
326,293,
329,306,
330,324,
330,345,
329,370,
327,402,
327,437,
329,475,
330,515,
327,561,
328,613,
326,665,
327,720,
328,774,
330,831,
329,889,
329,945,
333,992,
335,992,
334,991,
338,992,
334,992,
339,992,
339,992,
340,992,
345,992,
343,992,
345,992,
348,992,
350,992,
349,992,
351,992,
352,992,
352,992,
356,992,
355,992,
356,992,
356,992,
358,992,
356,992,
356,992,
353,993,
354,992,
350,992,
353,992,
351,992,
350,992,
347,992,
349,992,
347,965,
345,906,
344,846,
342,788,
339,727,
340,666,
339,607,
337,547,
337,490,
338,434,
337,382,
332,334,
330,290,
331,248,
331,213,
332,179,
332,150,
326,125,
329,104,
327,88,
325,76,
328,68,
325,67,
324,67,
325,73,
326,82,
327,93,
327,110,
324,129,
322,148,
324,172,
322,196,
325,222,
324,250,
323,278,
327,304,
326,331,
326,357,
327,385,
326,409,
328,433,
326,455,
325,476,
326,494,
326,512,
328,525,
327,538,
329,551,
331,560,
332,568,
331,571,
335,574,
335,573,
332,573,
336,571,
332,565,
340,557,
335,549,
339,539,
339,527,
336,517,
340,502,
339,489,
333,476,
337,461,
336,446,
336,429,
338,416,
335,399,
332,386,
332,373,
331,357,
330,343,
331,330,
326,318,
331,307,
330,295,
330,283,
333,273,
329,267,
328,257,
326,250,
328,242,
324,240,
325,234,
326,230,
326,227,
322,223,
321,220,
324,221,
324,219,
326,218,
325,217,
326,217,
324,220,
322,222,
326,222,
324,226,
325,229,
327,234,
324,237,
325,246,
325,253,
326,265,
327,278,
327,292,
327,314,
330,338,
330,368,
328,402,
332,440,
328,481,
330,525,
331,576,
333,632,
334,691,
333,751,
338,813,
335,877,
336,939,
336,991,
336,992,
339,992,
340,992,
341,992,
346,992,
345,992,
350,992,
349,992,
351,992,
353,992,
353,993,
359,992,
360,992,
357,992,
358,992,
358,992,
360,991,
360,992,
362,992,
359,992,
359,992,
361,992,
361,992,
359,992,
357,993,
356,992,
355,992,
353,992,
352,992,
350,992,
348,992,
348,992,
345,992,
344,992,
342,992,
341,992,
340,993,
337,992,
339,992,
338,993,
334,968,
335,900,
333,833,
332,766,
327,700,
325,637,
322,576,
325,515,
325,461,
325,412,
325,366,
323,324,
324,287,
323,256,
322,230,
320,208,
320,190,
321,176,
324,168,
318,161,
320,161,
320,165,
324,171,
325,181,
326,196,
323,210,
329,228,
333,245,
332,266,
332,287,
330,309,
331,332,
332,352,
332,374,
328,396,
331,416,
332,433,
333,449,
334,464,
334,479,
335,491,
334,500,
339,508,
337,514,
338,520,
340,522,
341,524,
342,521,
342,518,
340,513,
339,509,
337,500,
339,492,
337,481,
336,473,
337,463,
333,451,
331,436,
333,425,
333,413,
331,400,
330,387,
330,374,
327,360,
328,346,
327,334,
326,324,
327,310,
327,298,
325,286,
327,281,
323,270,
325,263,
326,253,
327,247,
322,239,
326,234,
327,229,
327,225,
324,222,
327,219,
323,217,
326,216,
325,213,
325,212,
323,210,
324,215,
324,216,
325,215,
322,217,
321,219,
324,222,
321,224,
325,226,
323,227,
325,230,
323,236,
322,240,
329,246,
328,250,
327,258,
328,267,
328,279,
331,293,
330,309,
331,333,
327,360,
331,393,
329,429,
332,469,
333,517,
333,569,
338,625,
339,684,
340,750,
340,816,
340,882,
343,952,
344,992,
348,992,
348,992,
350,992,
352,993,
352,992,
356,992,
357,992,
360,992,
359,992,
361,992,
362,993,
366,992,
364,992,
367,992,
367,992,
369,992,
371,992,
370,993,
367,992,
368,993,
371,992,
370,992,
370,992,
367,992,
366,993,
363,993,
365,992,
364,992,
361,992,
358,992,
359,992,
355,991,
356,992,
352,992,
349,992,
347,992,
345,992,
342,993,
341,992,
333,992,
335,993,
332,993,
329,993,
328,992,
323,992,
328,939,
323,866,
322,800,
320,732,
323,668,
319,605,
322,545,
316,491,
317,441,
316,397,
320,355,
319,322,
320,293,
319,269,
318,249,
316,233,
321,220,
319,214,
314,211,
317,210,
314,212,
320,219,
320,229,
320,239,
321,254,
323,268,
323,284,
326,301,
325,319,
324,335,
326,353,
328,369,
327,386,
330,401,
329,417,
331,429,
333,440,
334,449,
334,457,
337,465,
338,469,
339,473,
343,474,
340,476,
341,469,
337,465,
338,459,
340,452,
341,445,
340,437,
339,429,
340,417,
337,405,
338,393,
335,382,
338,369,
333,357,
333,342,
332,331,
333,321,
331,309,
334,294,
332,285,
330,274,
331,266,
331,256,
329,246,
331,236,
333,230,
331,224,
332,218,
331,213,
331,206,
332,204,
331,201,
331,200,
330,198,
329,196,
331,197,
331,199,
329,199,
331,200,
329,200,
330,205,
324,206,
327,207,
328,213,
327,215,
326,219,
326,220,
327,227,
325,230,
326,234,
327,237,
326,240,
326,244,
327,247,
326,250,
328,253,
324,256,
325,259,
322,260,
325,263,
324,264,
324,266,
320,267,
319,268,
321,270,
321,271,
321,273,
322,279,
320,282,
321,288,
320,293,
324,305,
325,318,
323,338,
325,359,
326,384,
326,419,
325,456,
326,499,
325,551,
330,601,
328,662,
328,725,
330,791,
331,859,
335,931,
337,992,
337,992,
340,992,
341,992,
347,992,
348,992,
350,992,
355,992,
358,992,
363,992,
365,992,
364,992,
365,992,
368,992,
368,993,
371,993,
370,992,
370,992,
372,992,
370,993,
372,992,
367,992,
366,992,
365,993,
364,992,
364,992,
362,992,
361,992,
355,992,
357,992,
354,992,
353,992,
349,992,
346,993,
347,992,
342,992,
341,992,
340,992,
339,992,
340,992,
338,993,
340,992,
335,993,
335,993,
332,993,
334,992,
330,991,
329,934,
327,863,
325,790,
325,722,
324,658,
319,594,
318,537,
319,485,
320,435,
317,392,
314,352,
315,324,
315,295,
311,272,
315,254,
314,243,
314,236,
316,231,
316,229,
317,234,
320,241,
319,249,
318,264,
322,277,
325,290,
323,308,
327,327,
327,345,
327,361,
331,380,
329,400,
332,415,
328,430,
332,446,
332,458,
333,471,
333,480,
334,488,
334,492,
335,496,
335,500,
334,500,
334,500,
333,496,
335,490,
337,485,
335,479,
335,470,
337,460,
338,450,
333,438,
333,426,
337,413,
336,399,
336,383,
332,369,
331,354,
331,340,
328,327,
332,313,
329,299,
328,288,
327,276,
327,264,
328,254,
326,245,
326,233,
329,228,
328,217,
329,211,
330,206,
327,202,
328,198,
329,195,
329,192,
329,190,
328,192,
327,189,
324,192,
330,193,
331,196,
327,199,
326,200,
323,202,
326,207,
324,211,
328,213,
326,220,
325,224,
326,229,
325,232,
325,237,
327,239,
324,243,
323,244,
328,247,
329,252,
328,255,
329,257,
329,259,
331,259,
332,261,
332,263,
332,264,
334,265,
334,264,
336,266,
335,267,
330,267,
333,271,
332,271,
331,274,
332,278,
330,282,
330,288,
330,300,
332,312,
332,330,
330,353,
328,378,
327,410,
327,447,
326,488,
325,536,
326,587,
326,643,
326,702,
329,764,
326,829,
328,893,
331,959,
333,992,
330,992,
335,992,
335,992,
340,992,
342,993,
346,992,
348,993,
348,992,
350,992,
354,992,
356,992,
354,993,
355,993,
358,993,
358,992,
361,993,
359,993,
362,992,
358,992,
363,992,
365,992,
362,992,
362,992,
364,992,
362,992,
360,992,
360,992,
360,992,
358,992,
359,992,
352,992,
353,992,
353,993,
353,993,
350,992,
345,992,
346,992,
345,992,
343,993,
341,992,
341,943,
336,872,
336,800,
333,727,
334,658,
330,588,
330,525,
327,464,
327,409,
326,358,
330,310,
327,270,
325,235,
326,206,
326,180,
326,159,
322,144,
323,128,
321,123,
321,121,
320,122,
320,131,
318,139,
321,154,
320,167,
322,184,
323,203,
324,224,
326,247,
327,268,
327,290,
329,315,
329,337,
330,359,
328,381,
331,399,
329,417,
333,434,
329,449,
329,462,
330,471,
330,481,
330,490,
327,495,
329,501,
332,498,
331,500,
331,500,
332,497,
333,491,
334,483,
333,474,
336,465,
337,454,
336,439,
335,427,
336,417,
335,405,
337,390,
335,375,
335,363,
333,348,
331,335,
333,320,
334,306,
334,294,
337,282,
333,270,
334,260,
332,248,
332,239,
333,231,
334,226,
332,216,
332,210,
335,203,
334,197,
331,196,
332,191,
330,187,
330,186,
329,186,
334,184,
329,188,
326,188,
330,189,
329,191,
328,193,
327,198,
327,202,
327,201,
331,206,
329,211,
328,217,
329,223,
327,227,
330,230,
331,236,
330,242,
334,246,
332,250,
332,254,
334,259,
330,262,
331,267,
330,266,
331,271,
330,274,
329,277,
326,279,
324,280,
331,281,
325,282,
324,285,
329,285,
324,285,
325,285,
322,287,
325,289,
322,289,
321,289,
324,289,
323,294,
322,296,
320,301,
320,308,
322,316,
322,329,
321,346,
324,367,
326,395,
325,424,
327,462,
323,505,
327,553,
329,606,
329,661,
331,721,
333,787,
328,856,
329,926,
332,990,
333,992,
334,992,
334,992,
337,992,
339,993,
339,992,
342,992,
345,993,
343,992,
344,992,
347,992,
346,992,
349,992,
352,992,
353,992,
355,992,
354,992,
357,992,
354,992,
353,993,
358,992,
360,992,
356,993,
358,992,
357,993,
357,992,
356,992,
356,992,
354,993,
355,993,
355,992,
352,992,
350,992,
350,992,
350,992,
350,992,
349,992,
348,992,
347,992,
346,992,
345,992,
345,992,
344,992,
342,992,
345,993,
343,933,
342,861,
342,792,
340,718,
340,649,
335,582,
334,522,
335,466,
330,415,
331,367,
330,327,
328,291,
328,263,
326,240,
325,219,
325,204,
325,193,
327,190,
326,189,
325,192,
327,197,
326,206,
328,221,
328,237,
327,255,
330,272,
330,292,
331,315,
333,336,
332,359,
333,378,
333,398,
335,419,
334,439,
332,456,
328,470,
332,483,
333,496,
332,508,
330,515,
328,520,
328,524,
328,527,
329,528,
328,529,
326,523,
327,514,
331,509,
328,500,
329,491,
329,477,
329,465,
330,452,
328,438,
328,424,
329,409,
329,393,
330,378,
327,363,
330,349,
332,331,
333,318,
332,304,
334,290,
332,278,
333,266,
332,253,
334,244,
334,236,
336,226,
335,219,
335,210,
334,204,
335,199,
333,197,
333,192,
335,190,
334,187,
332,186,
333,186,
334,185,
332,185,
335,185,
332,189,
333,193,
333,198,
334,199,
333,203,
333,208,
333,214,
331,221,
334,225,
336,230,
334,237,
335,244,
337,250,
336,254,
338,260,
337,266,
336,272,
336,279,
336,282,
338,285,
335,292,
337,296,
334,301,
333,303,
332,306,
332,309,
331,313,
331,315,
329,317,
330,319,
329,320,
326,324,
325,323,
326,325,
325,324,
324,328,
321,331,
322,333,
317,336,
321,341,
318,347,
317,358,
320,373,
318,392,
318,412,
324,439,
322,472,
323,509,
323,549,
326,595,
324,642,
327,695,
325,751,
327,810,
331,865,
331,922,
332,981,
332,993,
334,992,
336,992,
337,992,
340,992,
341,992,
343,992,
345,992,
346,992,
345,992,
348,992,
349,992,
351,992,
355,992,
353,992,
358,993,
358,993,
358,992,
357,992,
362,993,
360,992,
361,992,
360,992,
358,992,
363,992,
358,992,
358,993,
358,992,
355,992,
355,992,
353,992,
353,992,
349,992,
350,992,
349,992,
348,992,
348,993,
346,963,
345,900,
341,836,
342,771,
341,709,
339,647,
338,585,
336,527,
335,470,
332,417,
331,370,
329,323,
326,281,
326,245,
323,212,
323,184,
321,160,
324,139,
319,128,
319,118,
320,112,
318,108,
320,110,
319,115,
316,126,
317,138,
319,152,
319,167,
320,190,
322,210,
322,234,
324,255,
326,276,
325,303,
326,328,
326,352,
328,372,
328,392,
329,415,
332,435,
333,451,
332,466,
336,479,
334,490,
333,501,
336,508,
337,514,
337,516,
337,518,
335,518,
334,517,
335,512,
335,504,
335,497,
334,493,
336,482,
333,473,
331,460,
331,447,
331,434,
331,423,
329,411,
330,396,
330,383,
329,373,
331,362,
326,350,
328,338,
327,327,
329,321,
328,312,
325,305,
329,296,
329,288,
327,285,
329,281,
328,278,
328,272,
331,270,
328,271,
331,271,
333,272,
331,270,
332,272,
333,272,
329,274,
333,276,
329,276,
333,278,
330,279,
329,279,
329,281,
329,280,
328,277,
331,280,
330,280,
330,277,
331,275,
332,274,
332,272,
330,271,
329,267,
331,266,
329,261,
329,257,
330,257,
329,252,
327,248,
324,244,
325,239,
328,237,
325,236,
325,235,
322,232,
324,234,
324,238,
323,243,
325,250,
326,260,
325,275,
327,298,
326,326,
324,356,
328,393,
329,435,
329,485,
327,539,
329,597,
331,661,
333,726,
335,794,
335,867,
333,937,
336,991,
337,993,
338,992,
339,992,
338,992,
339,992,
344,992,
342,992,
347,992,
347,992,
348,993,
350,993,
350,992,
350,992,
350,992,
352,993,
353,993,
354,992,
352,992,
354,992,
356,992,
357,992,
358,993,
356,992,
355,992,
357,992,
356,992,
355,992,
356,992,
354,991,
353,992,
351,993,
349,993,
347,993,
347,993,
344,992,
344,992,
342,991,
341,934,
338,865,
337,795,
337,723,
335,655,
333,590,
331,529,
328,467,
329,410,
327,359,
327,313,
327,272,
323,234,
322,204,
323,175,
320,154,
321,137,
322,126,
322,116,
324,113,
321,113,
322,117,
323,125,
324,135,
325,149,
327,163,
327,183,
324,201,
324,221,
324,240,
323,263,
323,284,
322,304,
323,324,
320,343,
323,361,
321,379,
322,393,
324,408,
324,420,
327,431,
326,441,
325,447,
328,454,
327,460,
330,464,
331,462,
331,466,
331,464,
330,461,
332,459,
332,456,
332,450,
334,443,
335,437,
335,429,
333,421,
335,414,
336,406,
336,396,
337,389,
337,379,
337,373,
335,367,
338,359,
337,351,
339,346,
336,343,
338,337,
334,336,
333,328,
334,327,
334,329,
332,328,
334,326,
335,326,
332,326,
333,329,
331,330,
330,330,
329,332,
330,334,
329,337,
329,339,
329,340,
327,338,
327,339,
326,341,
324,340,
325,338,
325,336,
327,332,
326,331,
325,328,
325,325,
327,317,
330,314,
328,307,
326,298,
324,291,
329,282,
328,277,
327,268,
326,259,
324,251,
327,240,
327,233,
324,225,
329,218,
323,211,
325,207,
326,203,
329,201,
330,205,
326,209,
328,218,
331,230,
328,250,
330,272,
327,299,
329,335,
331,374,
329,420,
332,471,
330,524,
333,586,
331,648,
332,718,
333,789,
333,860,
332,930,
337,992,
333,992,
337,992,
338,992,
338,993,
341,993,
344,992,
342,992,
348,992,
350,993,
353,992,
353,992,
354,992,
356,992,
357,992,
356,992,
357,992,
356,992,
354,992,
355,992,
357,993,
357,991,
354,993,
354,992,
355,992,
354,992,
354,992,
350,992,
350,992,
348,993,
349,992,
348,991,
345,992,
343,992,
340,993,
343,992,
340,992,
342,992,
341,992,
340,992,
339,992,
340,993,
339,918,
339,840,
339,758,
337,681,
336,603,
336,528,
333,456,
333,390,
334,329,
332,267,
333,218,
330,174,
328,131,
329,91,
330,63,
329,38,
326,19,
327,6,
327,0,
327,0,
325,0,
324,0,
321,13,
322,27,
323,45,
322,69,
320,96,
319,127,
319,158,
319,189,
318,227,
314,263,
321,299,
318,336,
321,370,
326,404,
327,435,
327,469,
323,499,
328,527,
332,551,
333,576,
333,595,
332,612,
332,628,
332,635,
336,644,
334,650,
331,652,
330,652,
333,647,
331,642,
329,634,
329,625,
330,615,
331,599,
331,585,
332,569,
332,551,
332,533,
332,514,
332,494,
330,478,
333,459,
330,440,
331,422,
330,403,
333,386,
328,368,
330,351,
331,334,
328,321,
330,306,
330,294,
331,282,
333,269,
331,258,
327,250,
329,241,
330,233,
329,225,
329,220,
328,215,
325,209,
326,207,
326,202,
328,200,
328,198,
326,196,
325,193,
328,192,
327,189,
323,191,
326,192,
327,192,
330,192,
331,192,
331,195,
331,197,
329,199,
331,204,
331,210,
334,220,
335,232,
333,248,
335,270,
336,291,
332,322,
333,358,
335,400,
335,442,
335,495,
340,551,
337,609,
336,677,
340,745,
341,814,
342,885,
337,956,
341,992,
340,992,
344,992,
344,992,
345,993,
345,991,
345,993,
347,992,
348,992,
348,992,
346,992,
351,992,
351,992,
351,992,
351,992,
352,992,
354,992,
351,993,
354,992,
352,993,
354,992,
354,992,
355,992,
353,992,
352,992,
351,991,
348,992,
348,992,
346,992,
348,992,
345,992,
344,992,
342,992,
341,992,
341,993,
337,992,
336,992,
339,992,
337,992,
335,992,
336,992,
333,992,
335,992,
332,992,
329,923,
330,850,
329,780,
326,707,
327,637,
328,572,
322,510,
322,453,
324,401,
323,356,
325,312,
323,277,
324,248,
322,221,
325,202,
322,184,
325,173,
321,168,
321,164,
321,166,
321,174,
322,185,
324,198,
325,213,
328,230,
329,250,
328,273,
328,292,
329,313,
328,336,
331,356,
330,379,
331,401,
333,419,
332,434,
332,449,
331,466,
332,477,
332,488,
332,495,
335,500,
335,506,
333,508,
331,508,
338,507,
335,505,
334,500,
334,496,
328,488,
332,484,
329,474,
327,465,
329,455,
328,445,
328,433,
331,421,
332,414,
332,405,
334,395,
334,382,
335,372,
337,362,
336,354,
334,344,
336,334,
338,326,
338,318,
337,310,
334,303,
334,295,
334,289,
335,281,
330,275,
331,268,
333,262,
332,255,
331,248,
331,243,
328,236,
326,231,
329,224,
330,218,
328,210,
326,207,
327,200,
327,196,
329,191,
329,184,
328,181,
326,174,
331,168,
331,162,
329,160,
329,155,
330,152,
334,148,
335,145,
335,145,
332,144,
332,146,
334,147,
334,153,
334,164,
332,178,
331,195,
333,217,
329,245,
332,277,
333,318,
329,364,
330,412,
333,465,
331,529,
329,594,
327,663,
327,733,
330,806,
330,879,
330,955,
331,992,
332,992,
332,991,
335,992,
332,992,
335,992,
337,992,
340,992,
342,993,
343,992,
344,993,
345,993,
348,993,
353,993,
353,992,
355,993,
353,993,
355,992,
355,992,
356,992,
356,992,
354,992,
358,992,
354,993,
356,992,
355,993,
351,993,
353,993,
350,992,
351,992,
350,992,
349,992,
349,992,
350,993,
347,993,
344,992,
343,992,
342,992,
343,992,
342,992,
339,992,
339,921,
337,848,
336,775,
334,704,
332,635,
334,566,
333,502,
332,440,
331,385,
329,334,
331,286,
327,244,
326,207,
326,174,
325,146,
322,124,
321,107,
325,91,
324,85,
321,80,
320,80,
321,83,
321,87,
319,98,
318,115,
319,130,
318,147,
321,168,
325,191,
323,214,
323,238,
323,262,
325,284,
322,308,
324,334,
326,356,
327,377,
327,394,
327,412,
328,429,
327,446,
330,459,
330,468,
330,478,
331,486,
331,489,
334,494,
334,494,
335,495,
336,494,
335,490,
336,484,
336,479,
338,469,
337,461,
340,452,
340,440,
340,428,
341,417,
341,405,
339,393,
339,381,
336,367,
339,354,
340,341,
335,329,
336,318,
336,304,
336,291,
336,280,
335,269,
332,260,
333,252,
331,242,
331,233,
326,226,
327,222,
327,216,
326,208,
327,204,
325,202,
327,199,
327,197,
328,194,
327,192,
324,192,
326,191,
325,192,
327,192,
328,192,
329,193,
328,196,
330,197,
331,198,
330,202,
329,206,
328,211,
325,215,
325,221,
327,229,
327,239,
327,251,
326,266,
332,281,
333,305,
332,332,
330,365,
329,400,
329,441,
328,486,
330,536,
328,592,
333,651,
327,709,
332,773,
333,838,
334,903,
334,971,
335,992,
337,992,
339,992,
338,992,
340,992,
343,992,
346,992,
349,992,
350,992,
348,992,
352,993,
354,993,
355,992,
353,992,
351,993,
354,993,
355,992,
357,992,
356,992,
352,992,
350,992,
354,992,
354,992,
349,992,
347,992,
347,993,
347,993,
347,993,
347,993,
343,992,
343,992,
341,992,
343,992,
339,992,
342,992,
338,992,
339,992,
339,992,
338,992,
335,933,
334,866,
331,794,
334,724,
332,656,
332,588,
329,524,
326,464,
327,404,
328,353,
326,305,
326,261,
325,220,
326,185,
325,158,
327,135,
329,115,
329,102,
329,90,
330,85,
331,87,
331,90,
330,97,
330,106,
331,119,
330,137,
326,155,
327,176,
326,197,
326,222,
329,248,
325,273,
323,297,
327,322,
329,344,
329,370,
325,392,
328,413,
326,430,
327,447,
330,462,
328,476,
327,490,
331,498,
331,505,
330,512,
331,517,
328,516,
333,515,
336,511,
333,509,
334,505,
332,498,
332,490,
330,480,
333,470,
330,460,
329,446,
331,433,
331,419,
333,407,
332,394,
334,379,
335,365,
336,348,
337,336,
337,325,
337,312,
335,297,
336,286,
336,275,
334,264,
334,256,
335,244,
334,236,
334,228,
332,221,
331,215,
332,208,
330,205,
331,201,
327,199,
329,194,
330,192,
330,190,
330,189,
330,190,
326,192,
328,191,
327,191,
327,194,
328,197,
324,198,
326,203,
325,206,
322,208,
327,211,
324,214,
324,217,
324,219,
325,224,
325,230,
326,234,
321,239,
326,244,
326,252,
325,260,
326,271,
324,285,
327,302,
327,323,
326,348,
325,379,
324,416,
324,454,
325,500,
326,550,
325,605,
323,662,
326,723,
329,786,
329,853,
330,917,
330,983,
335,992,
335,992,
338,992,
340,993,
338,992,
340,992,
344,993,
344,993,
348,992,
347,992,
350,992,
352,992,
353,992,
357,992,
358,992,
360,992,
360,992,
361,992,
359,992,
360,993,
361,992,
363,992,
363,992,
363,993,
361,993,
358,992,
360,992,
358,993,
357,992,
356,992,
354,992,
351,992,
352,992,
347,992,
348,992,
345,993,
346,992,
345,992,
342,992,
338,916,
337,845,
336,772,
334,702,
334,633,
332,566,
330,502,
331,440,
329,382,
325,331,
331,285,
325,242,
328,204,
326,171,
326,147,
325,124,
322,108,
323,95,
323,86,
322,84,
321,87,
326,93,
322,101,
325,111,
327,127,
325,145,
326,166,
326,189,
325,213,
327,238,
329,265,
328,291,
328,317,
328,341,
324,364,
326,391,
324,412,
324,436,
322,454,
325,471,
325,487,
326,502,
327,515,
327,523,
327,531,
325,537,
327,540,
324,542,
328,538,
333,535,
327,531,
330,524,
328,517,
331,506,
333,495,
333,484,
331,471,
329,459,
331,444,
330,429,
331,415,
331,403,
327,387,
331,372,
328,355,
333,344,
329,332,
330,317,
332,304,
331,290,
328,279,
332,269,
329,258,
330,248,
334,240,
334,234,
335,228,
335,220,
333,216,
338,210,
337,206,
334,205,
334,203,
330,202,
333,198,
333,199,
333,202,
331,202,
330,205,
331,205,
326,208,
331,211,
325,212,
328,216,
328,221,
328,223,
328,227,
328,231,
326,234,
326,236,
328,240,
327,246,
327,247,
327,252,
326,254,
330,258,
330,261,
329,263,
330,265,
330,271,
329,275,
330,282,
329,289,
326,299,
331,311,
332,327,
329,348,
334,375,
333,404,
337,440,
335,478,
336,527,
335,577,
336,633,
334,690,
338,751,
339,814,
338,878,
337,943,
336,992,
339,992,
343,992,
340,992,
340,992,
341,992,
344,992,
344,992,
344,992,
342,992,
343,992,
344,992,
344,993,
345,992,
346,992,
348,993,
348,993,
351,992,
350,992,
347,992,
350,993,
350,993,
351,993,
350,992,
348,992,
349,993,
348,993,
349,992,
348,992,
346,993,
345,992,
346,993,
346,992,
343,992,
340,992,
341,993,
341,991,
342,993,
340,953,
338,883,
338,811,
336,736,
337,664,
337,595,
335,527,
334,461,
336,402,
334,342,
334,294,
336,248,
334,206,
329,168,
332,137,
326,110,
331,92,
328,78,
328,63,
325,59,
326,58,
325,63,
323,72,
326,83,
322,98,
323,118,
322,140,
319,164,
322,191,
322,217,
323,245,
321,275,
321,302,
320,331,
323,356,
323,386,
322,413,
324,437,
325,460,
324,479,
326,499,
328,516,
328,533,
331,546,
330,553,
333,562,
334,566,
333,572,
332,572,
336,569,
336,567,
334,561,
337,556,
338,546,
338,536,
337,524,
339,511,
337,499,
337,482,
336,467,
341,453,
340,437,
339,422,
341,408,
338,392,
335,374,
336,361,
333,345,
331,331,
331,316,
334,303,
327,292,
330,280,
328,269,
329,260,
329,250,
332,242,
326,236,
329,228,
326,221,
329,216,
327,212,
327,209,
325,207,
326,204,
327,205,
329,204,
327,206,
326,206,
326,206,
324,208,
328,210,
330,213,
326,215,
327,217,
327,220,
328,224,
328,228,
328,229,
328,233,
331,234,
328,238,
330,243,
328,244,
326,251,
329,253,
329,255,
328,262,
326,270,
326,279,
328,289,
326,300,
326,317,
326,339,
327,364,
325,393,
326,429,
325,470,
324,516,
325,565,
325,619,
327,676,
329,737,
328,800,
328,862,
329,926,
333,988,
330,992,
335,992,
335,992,
336,992,
340,992,
340,992,
338,992,
340,992,
345,992,
349,992,
349,992,
350,993,
350,992,
353,992,
357,993,
359,992,
361,992,
361,992,
359,992,
363,993,
364,992,
363,992,
361,993,
360,992,
361,993,
363,993,
364,992,
357,992,
353,993,
358,992,
355,992,
355,992,
353,993,
354,992,
349,992,
350,992,
347,993,
345,992,
343,949,
344,878,
340,808,
342,738,
340,667,
336,598,
336,533,
332,466,
328,408,
323,356,
324,307,
319,259,
322,220,
320,185,
322,157,
321,133,
320,114,
320,97,
321,90,
316,84,
319,86,
320,88,
319,98,
321,110,
316,126,
319,143,
320,163,
322,186,
322,210,
326,238,
322,264,
322,291,
324,319,
326,345,
326,374,
325,398,
327,423,
328,445,
328,465,
330,484,
330,504,
329,518,
335,533,
335,541,
335,552,
334,558,
336,562,
337,564,
338,564,
339,561,
338,557,
337,549,
340,541,
338,530,
340,520,
340,506,
339,493,
337,480,
339,464,
335,451,
338,435,
337,419,
337,403,
335,387,
335,373,
334,357,
332,341,
329,329,
330,313,
332,301,
329,287,
330,276,
326,266,
328,255,
331,246,
328,238,
327,231,
329,223,
330,218,
331,215,
328,212,
329,207,
330,207,
330,206,
330,206,
329,207,
328,206,
332,209,
330,208,
331,211,
331,215,
331,216,
330,221,
331,221,
333,225,
334,232,
331,232,
329,234,
334,239,
331,240,
332,245,
331,249,
331,252,
331,253,
330,256,
332,261,
330,266,
328,268,
325,274,
327,280,
328,288,
327,298,
327,312,
329,328,
328,349,
327,376,
322,408,
326,445,
322,486,
326,533,
328,585,
327,643,
328,704,
323,768,
334,833,
332,901,
333,970,
330,992,
332,992,
335,992,
336,991,
336,992,
339,992,
339,993,
342,992,
343,992,
348,993,
349,992,
353,993,
353,992,
354,992,
357,992,
356,993,
359,992,
360,992,
362,992,
360,992,
364,992,
362,992,
358,992,
360,992,
360,992,
359,993,
359,992,
361,992,
357,993,
355,992,
355,993,
353,992,
347,992,
350,992,
345,993,
346,993,
342,992,
341,992,
338,992,
338,992,
339,992,
337,993,
337,992,
338,913,
334,842,
334,769,
332,701,
333,629,
334,564,
331,501,
332,443,
327,389,
330,340,
329,296,
329,259,
327,227,
327,199,
326,177,
326,160,
326,147,
324,139,
324,137,
325,138,
323,140,
323,150,
321,163,
323,177,
324,196,
326,213,
328,235,
328,258,
325,279,
327,306,
326,326,
323,351,
329,370,
326,395,
327,413,
327,432,
327,451,
328,468,
329,482,
328,494,
330,501,
330,510,
331,514,
328,521,
328,522,
333,521,
332,518,
331,516,
332,509,
328,501,
331,493,
335,483,
335,473,
334,461,
329,444,
334,432,
335,416,
335,403,
330,390,
331,373,
329,358,
331,342,
331,327,
332,314,
329,302,
329,287,
330,273,
331,261,
329,252,
327,242,
327,232,
329,224,
327,216,
328,211,
327,206,
327,202,
328,197,
328,195,
327,195,
325,193,
325,193,
326,193,
326,193,
326,196,
324,197,
326,202,
326,204,
328,207,
326,209,
326,215,
326,218,
326,223,
327,227,
326,233,
329,239,
332,241,
331,246,
334,250,
333,255,
333,260,
333,263,
330,268,
331,269,
332,273,
333,277,
329,281,
331,282,
331,287,
328,292,
329,296,
329,300,
333,305,
330,312,
330,323,
327,337,
330,355,
330,377,
331,404,
329,435,
327,473,
329,519,
326,568,
326,622,
327,681,
329,741,
331,807,
332,873,
332,940,
331,992,
331,993,
330,992,
331,992,
332,993,
335,993,
335,992,
338,992,
343,992,
348,992,
351,992,
353,993,
352,992,
355,993,
358,992,
360,992,
357,992,
360,993,
360,992,
361,992,
361,993,
361,992,
362,992,
363,992,
363,992,
362,992,
362,992,
360,992,
357,992,
357,992,
356,992,
353,992,
350,993,
347,992,
351,993,
347,992,
347,993,
343,992,
340,993,
343,992,
339,992,
338,992,
336,992,
337,992,
334,992,
334,992,
331,918,
332,849,
327,776,
323,709,
326,639,
326,575,
325,516,
321,460,
325,411,
323,366,
323,326,
322,293,
323,265,
323,241,
320,220,
319,208,
321,200,
321,195,
322,196,
324,200,
321,206,
326,219,
322,231,
325,250,
326,266,
328,287,
330,306,
330,330,
332,352,
332,373,
333,396,
333,419,
334,438,
335,458,
335,474,
335,491,
336,504,
335,516,
335,526,
334,533,
335,537,
331,540,
332,542,
332,541,
335,537,
334,532,
335,527,
331,517,
332,508,
334,496,
333,481,
334,469,
336,457,
338,442,
336,426,
338,410,
338,395,
338,381,
335,366,
335,350,
337,334,
337,322,
334,308,
333,296,
332,282,
334,270,
331,257,
332,250,
330,238,
330,230,
330,222,
330,217,
329,212,
328,205,
327,202,
328,198,
328,196,
329,194,
324,190,
329,190,
328,190,
327,192,
329,194,
328,195,
329,197,
330,199,
330,203,
330,207,
329,210,
327,210,
330,215,
330,218,
328,221,
327,227,
328,230,
328,232,
329,234,
328,239,
329,244,
329,247,
330,250,
331,255,
330,260,
330,266,
329,272,
332,281,
332,289,
333,304,
330,322,
331,343,
326,368,
333,397,
333,432,
330,473,
329,518,
329,570,
330,622,
329,682,
331,744,
327,808,
328,872,
331,940,
332,992,
329,992,
335,992,
336,992,
337,992,
340,993,
337,992,
342,992,
343,992,
346,992,
346,993,
351,992,
348,992,
350,992,
353,992,
356,993,
356,992,
356,993,
356,992,
355,992,
356,992,
360,993,
358,992,
358,992,
357,992,
356,993,
350,992,
351,993,
350,993,
348,992,
348,993,
347,992,
345,992,
345,993,
343,992,
343,992,
339,992,
340,992,
339,992,
337,992,
333,992,
331,949,
334,879,
332,806,
332,734,
334,662,
331,592,
331,527,
328,464,
327,405,
329,350,
329,302,
329,259,
325,221,
328,185,
328,158,
325,135,
323,119,
326,107,
326,98,
324,93,
327,96,
323,100,
322,108,
323,121,
325,135,
327,154,
325,173,
325,195,
326,220,
329,244,
328,268,
330,292,
332,320,
333,344,
334,366,
336,389,
338,411,
337,430,
337,449,
335,465,
338,479,
333,491,
335,503,
337,509,
336,515,
336,518,
334,521,
336,521,
338,519,
337,514,
336,507,
336,502,
338,495,
334,486,
335,473,
336,458,
335,446,
331,433,
335,418,
336,400,
334,386,
335,372,
335,358,
332,344,
331,328,
335,315,
333,300,
328,290,
330,277,
327,266,
329,255,
329,245,
325,236,
328,230,
325,223,
324,217,
325,212,
323,208,
323,206,
322,203,
325,202,
325,202,
322,206,
326,204,
324,208,
324,210,
329,214,
327,220,
325,224,
327,229,
328,233,
327,241,
323,247,
324,255,
326,263,
328,266,
329,274,
325,284,
327,290,
327,299,
327,305,
327,312,
328,318,
328,327,
326,332,
329,338,
331,344,
332,352,
329,358,
328,363,
332,368,
332,370,
332,376,
335,384,
331,391,
334,397,
337,404,
336,415,
337,427,
336,443,
336,459,
339,486,
340,517,
339,552,
338,593,
337,637,
340,689,
339,742,
339,803,
336,866,
335,931,
337,990,
339,992,
336,992,
336,992,
339,992,
342,993,
342,993,
347,992,
346,993,
348,992,
350,992,
354,993,
355,992,
359,992,
359,992,
362,992,
363,992,
369,992,
367,992,
367,993,
370,992,
370,992,
371,993,
372,993,
371,992,
373,992,
369,993,
368,992,
367,992,
365,993,
364,992,
362,992,
360,992,
356,992,
355,992,
351,992,
353,992,
350,992,
350,992,
346,993,
343,993,
343,992,
339,992,
340,993,
337,992,
334,992,
336,992,
331,992,
330,992,
328,992,
327,992,
327,992,
326,984,
325,901,
320,827,
320,755,
318,686,
320,623,
317,563,
319,507,
318,457,
318,410,
319,371,
317,335,
318,305,
319,283,
320,264,
320,248,
319,240,
322,233,
324,231,
326,229,
325,234,
325,239,
326,247,
326,256,
326,270,
331,282,
330,296,
331,311,
331,325,
334,340,
335,353,
334,366,
331,378,
332,387,
329,395,
331,404,
332,412,
330,417,
329,420,
332,422,
329,421,
329,420,
332,421,
327,416,
325,412,
330,405,
329,398,
327,388,
327,381,
329,369,
329,359,
332,349,
331,338,
329,325,
332,311,
334,300,
332,287,
333,277,
332,265,
331,254,
333,241,
335,231,
334,222,
333,214,
334,206,
335,198,
335,191,
331,186,
334,179,
337,178,
336,174,
334,171,
335,170,
334,170,
333,170,
334,168,
332,172,
333,174,
331,176,
332,177,
331,180,
330,182,
327,185,
325,192,
325,195,
325,200,
325,203,
325,207,
324,213,
320,216,
324,221,
321,224,
322,230,
321,233,
318,237,
320,240,
318,242,
318,248,
322,253,
323,255,
321,259,
325,263,
323,266,
323,269,
325,277,
324,281,
326,286,
325,295,
327,306,
325,321,
326,342,
329,363,
329,392,
329,427,
330,466,
330,510,
329,561,
332,621,
334,683,
332,749,
334,820,
334,893,
335,969,
335,992,
334,992,
338,992,
340,992,
341,992,
345,992,
343,992,
346,992,
348,993,
352,992,
353,992,
355,993,
355,993,
361,992,
362,992,
360,993,
365,993,
365,992,
364,993,
368,993,
369,992,
369,993,
368,992,
369,992,
370,992,
368,993,
365,992,
366,992,
365,992,
362,993,
365,992,
364,992,
358,992,
359,992,
358,993,
355,993,
350,992,
349,993,
348,992,
347,992,
345,992,
346,992,
340,992,
339,992,
338,992,
338,993,
335,992,
333,992,
333,992,
333,992,
331,992,
328,991,
327,904,
326,834,
325,764,
325,698,
319,637,
320,574,
320,522,
324,470,
322,425,
319,387,
319,353,
320,322,
320,296,
320,275,
319,257,
319,246,
320,238,
319,230,
321,225,
321,227,
322,228,
323,232,
326,236,
327,243,
327,253,
326,264,
326,273,
327,285,
326,295,
325,308,
329,320,
326,329,
328,341,
328,348,
332,361,
330,370,
332,375,
331,381,
334,385,
335,388,
336,389,
335,388,
336,386,
336,382,
338,379,
339,372,
337,365,
340,357,
342,347,
341,337,
340,327,
338,316,
336,299,
336,287,
335,274,
332,259,
333,248,
334,233,
333,220,
331,207,
326,196,
325,183,
327,173,
328,160,
327,151,
326,143,
327,138,
324,132,
328,124,
327,121,
328,118,
325,116,
328,116,
327,114,
328,116,
328,118,
328,121,
326,124,
328,127,
330,133,
330,136,
330,143,
331,149,
331,156,
331,161,
328,169,
331,176,
327,182,
326,189,
329,192,
329,201,
328,207,
330,214,
328,216,
330,220,
330,226,
330,228,
332,232,
332,232,
334,238,
336,239,
334,242,
336,243,
332,244,
337,245,
333,246,
336,248,
334,249,
332,250,
336,252,
334,256,
333,261,
329,269,
325,281,
327,296,
326,314,
327,340,
321,368,
324,403,
324,445,
322,493,
320,545,
324,602,
323,663,
323,727,
324,797,
329,866,
330,939,
327,992,
333,992,
335,992,
340,992,
339,992,
341,992,
344,992,
347,992,
346,993,
349,993,
351,993,
354,992,
354,993,
356,992,
355,993,
356,992,
358,992,
358,993,
360,992,
360,992,
362,993,
360,993,
362,992,
361,992,
358,992,
356,992,
352,992,
352,992,
351,992,
349,992,
347,992,
347,992,
347,992,
345,992,
337,993,
337,992,
336,992,
335,992,
335,992,
334,992,
331,992,
328,942,
329,866,
327,789,
326,713,
321,636,
324,565,
322,495,
322,429,
323,369,
320,313,
322,262,
321,217,
324,177,
323,141,
323,110,
326,88,
323,68,
326,53,
328,45,
326,42,
329,42,
329,44,
328,52,
327,64,
330,81,
330,96,
327,115,
331,137,
327,161,
329,186,
326,211,
326,238,
326,262,
328,289,
329,313,
328,338,
328,360,
329,381,
330,402,
326,421,
328,437,
326,452,
326,464,
331,475,
329,483,
328,490,
331,493,
332,495,
331,498,
327,497,
329,491,
331,487,
330,479,
332,471,
331,462,
332,451,
333,440,
335,426,
330,415,
336,402,
333,388,
333,375,
333,359,
333,344,
326,331,
332,316,
330,301,
332,288,
332,275,
332,262,
333,251,
331,239,
331,229,
335,219,
334,212,
334,204,
334,195,
334,187,
335,182,
334,180,
334,177,
332,173,
330,170,
336,168,
328,167,
330,169,
330,169,
329,168,
328,170,
327,174,
326,174,
326,178,
327,182,
326,183,
324,187,
324,192,
325,194,
324,200,
325,204,
326,206,
324,211,
326,216,
324,222,
325,227,
326,228,
326,235,
322,236,
325,241,
326,244,
329,247,
326,251,
330,253,
332,255,
332,256,
334,258,
335,259,
335,265,
336,268,
338,269,
340,274,
334,281,
337,289,
334,298,
337,312,
337,327,
336,350,
333,375,
330,408,
335,441,
334,480,
330,525,
331,574,
332,623,
330,679,
331,733,
333,794,
330,856,
332,913,
329,971,
333,992,
333,993,
331,992,
332,991,
332,991,
333,992,
336,992,
334,992,
337,992,
339,992,
341,992,
337,992,
338,992,
341,993,
343,992,
344,993,
344,992,
347,993,
345,992,
347,992,
348,992,
347,992,
350,992,
346,992,
349,992,
348,992,
349,992,
349,992,
350,992,
345,992,
348,992,
346,992,
347,942,
344,881,
345,816,
342,751,
340,687,
339,623,
340,559,
338,498,
336,439,
335,383,
334,329,
333,282,
330,235,
331,193,
328,155,
329,118,
327,90,
324,64,
324,45,
326,26,
324,16,
326,9,
324,7,
325,7,
328,12,
327,20,
326,31,
327,47,
324,65,
327,85,
325,108,
325,135,
324,160,
326,190,
327,220,
328,248,
328,277,
328,306,
331,335,
328,362,
331,388,
332,411,
332,437,
331,459,
331,478,
333,496,
334,510,
332,526,
335,539,
334,548,
334,556,
333,562,
332,564,
334,565,
333,564,
335,559,
333,555,
330,548,
332,543,
335,530,
332,518,
333,506,
333,496,
332,479,
337,465,
334,449,
335,434,
333,419,
333,405,
335,389,
333,374,
335,360,
335,346,
336,334,
335,318,
336,306,
334,292,
335,282,
333,270,
331,260,
333,250,
334,241,
330,234,
329,230,
326,223,
328,218,
327,212,
330,212,
328,207,
332,207,
332,204,
331,203,
332,205,
333,207,
336,207,
333,207,
336,210,
336,215,
335,217,
333,219,
333,223,
333,227,
330,229,
328,235,
324,239,
329,244,
328,247,
329,252,
326,256,
327,259,
329,262,
326,264,
326,271,
326,275,
321,277,
325,280,
325,280,
321,285,
324,290,
324,291,
319,294,
325,297,
323,300,
324,307,
320,311,
322,318,
322,326,
322,340,
321,356,
321,378,
319,400,
323,429,
321,465,
322,502,
320,544,
325,591,
325,639,
326,690,
324,746,
326,802,
328,856,
328,911,
331,965,
328,992,
328,992,
332,992,
334,993,
338,992,
338,992,
339,993,
339,992,
339,992,
344,992,
342,992,
343,992,
345,992,
347,991,
346,992,
346,992,
349,993,
351,993,
351,992,
355,992,
354,993,
353,992,
351,992,
354,992,
353,992,
352,992,
350,992,
349,992,
350,992,
346,962,
346,906,
345,847,
345,787,
343,728,
345,666,
342,607,
342,550,
339,494,
337,435,
336,384,
337,332,
335,286,
334,242,
334,199,
334,162,
331,129,
333,99,
331,73,
329,48,
330,31,
331,19,
328,10,
327,4,
328,4,
327,7,
328,14,
329,25,
325,39,
320,57,
325,78,
326,100,
324,126,
323,155,
321,184,
324,213,
324,244,
320,274,
328,308,
326,340,
328,372,
326,397,
326,430,
327,459,
328,486,
325,510,
331,530,
330,551,
329,570,
330,586,
332,598,
329,608,
331,619,
329,623,
332,629,
331,629,
333,627,
336,625,
330,620,
330,614,
332,603,
332,591,
333,579,
333,567,
333,554,
330,537,
334,521,
335,507,
332,492,
332,474,
332,457,
332,443,
337,425,
337,412,
334,396,
333,379,
333,366,
334,350,
332,337,
332,328,
333,315,
334,304,
335,293,
334,284,
335,275,
336,267,
336,261,
338,254,
334,250,
335,247,
334,242,
335,239,
334,238,
334,238,
331,235,
330,236,
333,233,
330,235,
332,239,
330,243,
329,245,
326,248,
331,249,
333,253,
329,255,
330,257,
330,259,
332,261,
334,268,
333,271,
332,274,
333,277,
333,281,
334,286,
329,291,
331,299,
329,305,
330,312,
332,322,
329,336,
330,351,
327,370,
329,394,
330,424,
331,455,
325,490,
328,531,
328,574,
328,624,
330,671,
327,724,
326,776,
331,828,
330,881,
330,931,
335,982,
336,992,
336,993,
335,992,
338,993,
336,992,
340,992,
343,993,
341,993,
342,992,
342,992,
341,992,
345,992,
347,992,
347,992,
346,993,
347,992,
351,992,
350,992,
351,992,
347,992,
350,992,
349,992,
350,992,
346,992,
348,992,
343,992,
346,992,
347,992,
347,945,
344,892,
344,835,
345,780,
347,723,
341,666,
340,610,
341,556,
338,502,
342,448,
340,397,
341,352,
337,306,
338,264,
338,224,
339,189,
334,157,
333,125,
335,101,
336,81,
336,64,
332,49,
333,41,
332,37,
334,34,
334,36,
332,43,
331,52,
325,66,
328,79,
330,98,
324,119,
326,142,
324,166,
326,193,
325,220,
326,250,
326,280,
327,309,
326,336,
327,364,
324,394,
328,420,
328,445,
326,469,
328,489,
329,511,
328,527,
328,545,
328,559,
332,571,
334,583,
333,589,
332,595,
334,598,
333,598,
333,599,
331,596,
333,591,
332,583,
332,577,
333,567,
335,558,
334,545,
333,533,
336,521,
336,507,
335,495,
334,481,
333,466,
332,452,
334,439,
332,426,
330,413,
330,400,
329,386,
331,374,
333,361,
332,351,
332,339,
329,328,
333,317,
329,308,
330,302,
334,294,
334,289,
336,282,
336,277,
332,273,
335,269,
336,268,
333,262,
336,264,
334,263,
334,262,
336,260,
335,260,
335,261,
334,264,
333,263,
331,266,
329,266,
329,268,
329,271,
329,271,
332,274,
333,276,
331,277,
333,282,
330,286,
329,286,
332,290,
332,294,
333,302,
333,308,
335,317,
336,327,
337,341,
337,359,
335,379,
333,406,
337,435,
337,471,
338,510,
337,557,
338,604,
338,657,
340,712,
340,770,
339,830,
335,888,
338,947,
339,992,
340,992,
340,993,
340,992,
342,992,
342,992,
343,991,
344,992,
344,992,
346,992,
348,992,
347,992,
345,992,
348,993,
347,992,
347,992,
351,992,
350,993,
348,993,
352,992,
350,992,
349,992,
345,992,
347,992,
348,992,
349,993,
350,992,
347,991,
347,992,
345,993,
344,992,
341,993,
345,993,
341,991,
342,992,
344,992,
340,992,
340,926,
338,866,
338,803,
338,743,
339,678,
337,620,
333,559,
336,502,
335,448,
333,398,
332,353,
331,309,
330,271,
332,236,
331,206,
330,181,
328,161,
329,144,
328,129,
327,121,
324,118,
326,119,
325,124,
325,130,
326,142,
325,158,
322,174,
320,195,
324,215,
325,239,
322,263,
324,289,
324,314,
325,341,
325,364,
326,392,
325,418,
326,443,
329,465,
328,484,
329,504,
329,522,
327,539,
330,548,
330,564,
332,572,
333,585,
331,588,
331,591,
336,592,
336,591,
334,589,
335,587,
333,578,
337,571,
332,563,
336,554,
335,541,
335,530,
338,517,
337,504,
339,490,
336,475,
337,461,
337,448,
341,431,
341,418,
340,404,
339,389,
340,376,
339,362,
336,351,
335,340,
335,329,
333,317,
333,306,
332,299,
331,292,
330,284,
332,276,
332,269,
329,264,
328,259,
329,256,
325,253,
328,249,
328,249,
324,248,
325,247,
327,246,
326,245,
327,248,
325,251,
328,251,
326,253,
328,257,
325,258,
330,262,
326,265,
328,267,
327,269,
328,275,
328,279,
324,282,
325,284,
330,288,
328,293,
330,299,
330,307,
330,313,
333,322,
332,336,
334,351,
331,369,
332,390,
333,418,
334,452,
333,493,
329,534,
330,583,
334,634,
331,688,
333,747,
332,806,
333,865,
335,926,
335,987,
334,992,
335,992,
337,993,
338,992,
338,992,
336,992,
340,993,
339,992,
338,991,
343,992,
343,992,
343,992,
343,992,
347,992,
349,992,
348,992,
351,992,
349,992,
353,992,
353,992,
354,992,
355,992,
358,992,
349,992,
355,992,
352,992,
351,992,
352,992,
352,992,
350,992,
349,992,
348,992,
345,992,
344,992,
346,992,
343,992,
338,992,
339,992,
338,948,
338,882,
335,817,
336,752,
331,687,
331,625,
330,563,
332,506,
325,448,
325,399,
328,355,
327,310,
330,273,
328,238,
326,212,
320,188,
325,170,
328,154,
325,144,
323,142,
324,143,
326,146,
325,153,
322,167,
323,179,
326,198,
324,219,
323,238,
325,264,
324,289,
323,316,
323,341,
326,369,
321,394,
325,421,
324,445,
327,469,
328,492,
330,515,
332,536,
332,554,
335,568,
336,582,
335,590,
336,603,
336,608,
335,613,
337,614,
339,614,
337,612,
337,609,
337,599,
342,593,
338,584,
335,574,
337,563,
336,547,
337,533,
337,520,
336,504,
337,489,
337,473,
341,456,
339,440,
340,424,
338,410,
339,396,
337,381,
336,366,
336,355,
337,340,
337,328,
336,316,
333,304,
336,295,
333,286,
333,277,
334,270,
332,264,
332,258,
330,256,
329,250,
332,246,
332,243,
331,242,
327,242,
327,242,
330,241,
326,241,
325,245,
326,245,
323,245,
326,250,
321,250,
324,253,
321,258,
322,260,
317,264,
324,264,
324,269,
321,272,
324,275,
323,279,
322,283,
320,286,
320,292,
322,299,
319,305,
324,311,
322,322,
325,334,
328,352,
324,371,
325,394,
327,425,
322,460,
325,499,
326,543,
326,590,
330,643,
330,702,
329,760,
332,819,
335,881,
336,943,
338,993,
336,993,
337,993,
340,992,
342,993,
340,992,
341,992,
345,992,
347,992,
348,992,
347,992,
349,993,
346,992,
350,993,
354,992,
352,993,
354,992,
354,992,
354,993,
354,992,
357,992,
354,993,
353,992,
355,992,
352,992,
352,992,
350,992,
350,992,
350,992,
350,992,
346,992,
343,992,
345,992,
343,991,
345,993,
344,992,
343,992,
343,992,
340,992,
342,949,
339,883,
340,816,
339,748,
338,682,
338,617,
335,554,
338,496,
335,441,
336,390,
337,344,
335,302,
337,265,
335,235,
336,208,
332,183,
335,167,
333,156,
331,146,
328,141,
333,142,
331,148,
333,159,
332,171,
333,187,
331,203,
332,224,
333,248,
333,272,
333,295,
333,322,
331,347,
332,375,
332,400,
333,425,
333,447,
331,469,
332,492,
332,510,
327,528,
330,543,
330,555,
328,567,
329,576,
326,581,
328,585,
329,585,
327,587,
329,585,
329,581,
333,573,
332,565,
333,556,
336,547,
335,536,
336,520,
338,506,
338,494,
337,479,
338,465,
340,448,
340,434,
339,418,
338,404,
337,390,
336,375,
336,358,
337,345,
336,336,
335,323,
334,311,
336,298,
335,289,
336,282,
334,272,
334,268,
335,260,
336,256,
334,252,
332,249,
333,245,
333,244,
331,242,
330,243,
326,243,
324,244,
328,243,
326,246,
326,248,
322,250,
325,253,
325,255,
327,257,
325,262,
325,266,
324,270,
327,271,
327,276,
326,280,
326,285,
324,287,
325,291,
325,292,
327,297,
328,300,
328,304,
327,306,
331,307,
331,310,
333,316,
333,318,
330,321,
333,325,
334,333,
334,343,
334,356,
333,368,
332,388,
332,412,
332,445,
330,478,
331,517,
331,559,
332,612,
332,668,
330,727,
330,788,
331,853,
334,921,
333,989,
332,993,
332,992,
337,992,
339,992,
336,992,
339,993,
342,992,
343,992,
346,992,
349,992,
350,992,
353,992,
355,992,
355,993,
357,992,
357,992,
355,993,
358,992,
360,992,
359,992,
360,992,
359,992,
361,992,
359,993,
359,992,
358,992,
353,992,
356,993,
354,992,
354,992,
355,992,
354,992,
350,993,
350,992,
349,992,
346,992,
346,992,
348,992,
343,992,
343,993,
341,992,
339,992,
336,993,
338,992,
332,992,
337,993,
333,991,
333,904,
332,831,
333,762,
332,697,
329,633,
329,572,
329,515,
329,464,
329,419,
327,380,
326,345,
327,316,
327,291,
328,273,
325,260,
323,250,
324,242,
326,244,
324,248,
323,256,
325,265,
325,276,
325,291,
321,309,
324,329,
324,349,
326,366,
327,387,
327,409,
327,430,
324,449,
324,468,
327,483,
328,501,
328,517,
326,529,
326,537,
330,542,
329,550,
333,556,
335,558,
333,555,
336,552,
338,550,
336,544,
337,535,
335,526,
337,513,
338,501,
339,489,
338,477,
336,462,
337,447,
338,433,
339,420,
339,403,
338,387,
340,370,
340,355,
337,339,
337,325,
335,310,
340,295,
335,283,
338,271,
336,259,
337,250,
334,239,
336,231,
332,226,
331,219,
329,213,
329,206,
327,204,
329,203,
327,201,
329,200,
326,199,
329,200,
328,201,
329,205,
328,206,
325,205,
330,209,
331,214,
331,218,
328,222,
331,223,
330,227,
331,233,
331,237,
330,240,
331,242,
332,245,
332,252,
331,256,
333,261,
334,262,
334,265,
331,270,
332,276,
333,280,
331,284,
332,287,
332,294,
331,301,
331,310,
331,319,
331,332,
329,349,
327,372,
326,398,
330,427,
329,462,
330,506,
329,552,
326,604,
328,661,
330,720,
330,786,
328,853,
326,920,
327,989,
330,992,
331,992,
333,992,
333,992,
337,992,
340,992,
341,992,
344,992,
345,992,
344,992,
351,992,
351,992,
355,993,
354,992,
359,992,
363,992,
361,992,
364,992,
365,992,
364,992,
368,993,
366,992,
366,993,
364,992,
361,993,
362,993,
359,992,
360,992,
357,992,
355,993,
353,993,
352,992,
348,993,
343,992,
341,992,
339,992,
337,992,
335,991,
334,992,
328,992,
331,992,
327,992,
326,992,
325,993,
326,992,
327,919,
325,844,
326,773,
327,704,
324,639,
326,571,
328,511,
325,455,
325,406,
322,361,
322,320,
324,285,
322,255,
320,230,
322,214,
323,197,
322,188,
324,182,
322,182,
321,186,
321,192,
320,200,
323,215,
323,231,
323,251,
322,268,
325,289,
323,311,
326,334,
324,356,
326,377,
324,399,
326,420,
328,439,
326,457,
326,474,
330,489,
328,501,
330,514,
327,523,
331,530,
326,533,
332,537,
332,537,
331,537,
331,534,
333,526,
333,518,
333,507,
337,498,
335,487,
338,473,
338,459,
339,444,
334,430,
338,417,
336,399,
341,383,
337,367,
342,353,
338,337,
339,321,
338,305,
337,289,
338,276,
334,264,
336,250,
336,239,
335,227,
335,218,
331,210,
330,200,
331,193,
330,186,
326,183,
329,179,
327,175,
328,172,
329,170,
328,170,
328,172,
328,176,
328,175,
333,176,
330,180,
328,182,
326,187,
330,189,
331,192,
330,197,
331,202,
329,206,
331,211,
329,212,
332,217,
332,222,
334,224,
334,228,
335,232,
336,237,
335,240,
332,245,
335,250,
333,251,
336,256,
335,263,
335,266,
332,271,
338,275,
336,283,
337,292,
338,304,
336,319,
335,338,
335,363,
332,391,
329,425,
330,463,
330,507,
332,555,
331,609,
331,667,
332,729,
333,793,
334,861,
334,927,
335,991,
332,992,
334,992,
338,993,
337,992,
341,992,
341,992,
342,992,
343,992,
344,992,
343,993,
346,993,
348,992,
349,992,
351,992,
349,992,
349,992,
350,992,
353,992,
353,992,
354,993,
352,992,
356,992,
351,992,
353,992,
350,992,
350,992,
351,992,
351,992,
350,992,
348,992,
346,992,
345,992,
345,993,
344,992,
341,993,
342,993,
339,992,
340,992,
339,992,
336,992,
335,993,
335,910,
336,835,
334,762,
329,691,
331,622,
327,555,
331,490,
330,430,
329,376,
325,326,
327,282,
330,240,
329,209,
329,181,
327,158,
328,141,
327,126,
328,121,
328,115,
326,121,
328,126,
329,134,
326,149,
329,167,
326,186,
323,205,
327,229,
328,255,
326,281,
324,307,
325,332,
322,357,
325,382,
327,404,
327,428,
326,448,
330,468,
333,484,
334,501,
333,512,
335,524,
336,532,
336,536,
333,542,
333,544,
334,544,
330,541,
333,535,
330,528,
330,519,
331,511,
332,496,
333,482,
330,468,
331,455,
331,442,
331,423,
336,409,
335,394,
333,377,
332,361,
332,343,
333,327,
333,312,
333,297,
333,282,
332,268,
334,255,
335,243,
331,236,
334,221,
332,214,
331,204,
333,199,
331,194,
331,189,
330,185,
332,181,
331,178,
332,177,
332,177,
328,178,
332,179,
332,180,
336,180,
332,184,
333,189,
332,189,
334,192,
332,198,
331,202,
331,206,
334,208,
333,213,
334,216,
334,221,
333,224,
331,231,
334,231,
335,236,
335,240,
336,245,
334,245,
333,251,
336,255,
331,261,
333,264,
331,267,
333,273,
334,281,
333,290,
330,300,
329,314,
330,331,
330,354,
329,382,
328,415,
328,452,
329,493,
330,543,
326,596,
329,656,
327,717,
327,783,
326,850,
326,921,
325,988,
327,992,
328,993,
324,992,
329,992,
328,992,
329,992,
331,992,
333,992,
334,992,
335,992,
336,992,
339,993,
342,992,
344,993,
343,993,
344,992,
348,992,
350,993,
348,991,
353,992,
352,992,
353,992,
352,992,
352,992,
350,992,
349,992,
352,992,
350,992,
351,992,
352,992,
350,993,
353,992,
354,992,
354,993,
352,992,
350,993,
354,993,
352,992,
352,992,
349,992,
349,992,
346,992,
346,992,
340,992,
340,970,
339,896,
337,822,
336,750,
333,680,
328,614,
332,550,
329,490,
333,435,
332,385,
330,344,
329,304,
332,270,
333,242,
331,220,
330,201,
332,190,
329,181,
333,178,
330,180,
334,185,
334,194,
334,204,
333,216,
334,233,
332,251,
333,269,
333,292,
331,310,
333,334,
334,355,
334,376,
331,395,
334,415,
333,432,
333,447,
333,463,
332,475,
335,488,
333,493,
333,502,
332,509,
334,513,
336,511,
338,510,
335,507,
336,503,
336,495,
339,487,
339,476,
336,464,
337,454,
336,441,
334,425,
337,412,
336,397,
332,383,
333,368,
334,352,
333,337,
334,323,
332,312,
330,296,
330,283,
329,268,
330,256,
331,246,
326,235,
328,226,
329,216,
328,206,
327,201,
325,194,
321,187,
325,182,
324,180,
324,178,
323,177,
322,173,
327,174,
327,172,
327,175,
325,177,
326,179,
327,180,
328,183,
328,189,
330,193,
329,197,
330,200,
329,204,
331,208,
328,213,
329,216,
332,219,
328,221,
330,225,
330,230,
330,234,
330,235,
331,239,
330,241,
329,245,
328,248,
326,246,
331,250,
330,251,
329,254,
332,257,
331,256,
331,257,
334,261,
334,264,
332,268,
333,270,
333,275,
336,282,
333,290,
332,302,
332,317,
331,336,
332,361,
333,390,
330,426,
333,468,
332,512,
334,564,
333,625,
332,688,
334,755,
335,824,
333,898,
335,974,
335,992,
337,992,
338,992,
342,992,
341,993,
341,992,
343,992,
342,992,
347,992,
349,992,
352,992,
349,993,
354,992,
355,993,
359,992,
359,993,
358,992,
361,992,
363,992,
364,992,
365,992,
364,993,
362,992,
363,992,
361,992,
362,992,
358,993,
358,992,
358,992,
356,993,
352,993,
350,993,
348,992,
347,992,
343,992,
342,993,
340,992,
339,992,
339,992,
337,992,
335,992,
333,992,
330,992,
333,993,
329,992,
329,992,
325,992,
325,992,
327,992,
328,959,
328,889,
328,817,
328,746,
328,681,
329,620,
329,562,
328,510,
329,460,
329,416,
331,378,
333,345,
330,319,
332,296,
331,280,
334,265,
334,256,
335,252,
332,249,
335,249,
334,252,
333,260,
333,269,
333,280,
333,293,
332,304,
333,320,
333,335,
333,349,
332,363,
335,377,
335,389,
330,402,
331,413,
329,423,
329,430,
328,435,
326,441,
330,445,
327,445,
328,445,
328,444,
327,441,
331,438,
327,432,
330,425,
330,415,
327,409,
328,398,
329,387,
331,375,
329,363,
329,353,
327,338,
326,326,
327,313,
329,300,
325,288,
326,275,
329,262,
328,250,
330,240,
327,230,
326,220,
327,212,
329,200,
328,194,
330,189,
329,182,
328,179,
327,174,
333,168,
331,167,
328,165,
331,164,
333,163,
334,163,
333,165,
333,166,
332,168,
337,171,
334,172,
333,174,
332,180,
328,181,
330,183,
330,187,
329,193,
329,199,
327,203,
328,206,
327,209,
327,212,
328,218,
325,218,
324,220,
324,224,
324,227,
321,229,
324,230,
323,233,
326,233,
322,235,
320,236,
322,237,
324,237,
324,236,
327,238,
326,240,
323,240,
326,242,
325,245,
328,247,
325,250,
326,255,
328,263,
327,270,
329,282,
327,300,
326,320,
327,345,
327,374,
328,410,
328,455,
326,500,
328,554,
327,609,
326,672,
326,741,
327,809,
329,881,
330,953,
330,992,
331,992,
333,992,
333,992,
334,992,
339,992,
341,992,
343,992,
346,992,
348,993,
350,993,
351,992,
352,992,
352,992,
352,992,
356,992,
358,992,
356,993,
359,992,
356,993,
359,992,
359,992,
356,992,
356,992,
354,992,
357,992,
352,992,
352,992,
351,992,
349,993,
347,992,
348,992,
347,992,
344,992,
344,993,
348,992,
345,992,
343,992,
340,993,
340,992,
339,992,
340,992,
339,992,
336,993,
337,993,
335,948,
333,871,
330,796,
332,720,
331,646,
332,575,
328,508,
328,447,
325,391,
325,338,
323,293,
324,253,
323,219,
323,190,
322,165,
322,147,
322,132,
319,123,
320,118,
322,120,
320,121,
324,132,
321,144,
323,158,
325,176,
322,194,
327,214,
327,236,
327,258,
327,283,
327,306,
328,327,
331,351,
328,374,
329,394,
326,412,
331,430,
330,446,
330,461,
327,472,
328,482,
328,490,
328,495,
331,500,
330,501,
331,501,
333,498,
333,493,
333,485,
333,477,
333,470,
334,459,
331,446,
334,435,
332,421,
333,408,
331,392,
333,375,
334,361,
331,347,
331,333,
333,316,
332,302,
331,290,
331,277,
332,265,
334,252,
333,242,
332,231,
332,223,
327,214,
334,205,
331,197,
333,192,
329,187,
330,182,
331,179,
331,174,
334,173,
333,173,
333,172,
334,173,
335,172,
335,173,
333,177,
332,179,
334,182,
335,183,
335,188,
332,191,
330,197,
333,201,
334,202,
333,206,
335,211,
335,214,
337,216,
335,219,
339,222,
334,227,
336,229,
335,231,
336,233,
335,235,
332,236,
331,240,
331,244,
331,246,
330,250,
329,253,
327,258,
325,264,
326,270,
328,279,
327,291,
326,308,
325,327,
325,352,
327,382,
328,418,
326,459,
329,505,
328,553,
327,608,
328,666,
329,727,
331,792,
333,857,
334,923,
335,988,
337,992,
336,992,
338,992,
339,992,
343,992,
344,992,
342,992,
344,992,
347,992,
341,992,
344,992,
344,992,
344,992,
347,993,
344,992,
345,992,
343,992,
346,993,
349,992,
346,992,
343,992,
343,993,
344,993,
348,992,
346,993,
344,992,
346,992,
346,993,
347,992,
347,993,
346,992,
344,992,
346,992,
347,992,
346,993,
346,992,
345,992,
342,921,
344,849,
343,779,
339,707,
339,634,
338,564,
339,496,
336,432,
335,374,
333,317,
329,265,
329,215,
330,174,
327,137,
326,106,
322,80,
318,57,
320,40,
322,30,
321,22,
321,22,
322,21,
322,30,
320,42,
320,57,
323,76,
322,95,
323,117,
328,143,
327,171,
323,200,
326,230,
327,259,
328,288,
326,321,
325,351,
324,380,
328,406,
326,430,
333,455,
330,475,
331,496,
334,513,
334,528,
332,542,
333,553,
334,559,
335,565,
334,568,
329,568,
332,566,
331,560,
335,554,
337,546,
336,535,
336,525,
337,510,
338,497,
337,482,
337,468,
337,453,
332,436,
336,420,
338,403,
337,386,
338,369,
335,353,
339,336,
336,321,
333,307,
331,292,
330,279,
327,266,
331,254,
329,244,
327,234,
324,225,
327,214,
324,208,
325,203,
325,200,
324,195,
322,188,
327,186,
327,184,
326,183,
325,182,
328,181,
330,182,
331,185,
331,186,
331,187,
333,190,
334,194,
335,196,
334,200,
333,204,
330,209,
332,212,
334,214,
331,219,
331,223,
331,226,
332,229,
330,235,
333,240,
332,245,
333,248,
333,252,
334,257,
331,262,
333,272,
333,284,
331,298,
332,313,
332,335,
329,360,
327,390,
329,424,
327,462,
327,508,
325,558,
325,611,
326,671,
325,729,
330,793,
329,858,
328,923,
332,988,
333,992,
333,993,
331,992,
330,992,
334,993,
336,992,
336,992,
338,992,
341,992,
341,993,
345,992,
345,992,
347,992,
349,993,
348,993,
351,992,
353,992,
354,993,
356,992,
354,992,
356,992,
359,993,
351,992,
354,992,
353,992,
355,992,
354,993,
353,991,
352,992,
352,992,
352,992,
349,992,
350,992,
347,992,
348,992,
349,992,
347,993,
345,992,
343,992,
343,919,
343,847,
342,774,
340,705,
338,636,
338,567,
338,503,
335,440,
335,382,
332,330,
327,281,
329,236,
325,195,
326,163,
323,134,
325,111,
319,89,
321,77,
317,64,
316,61,
317,61,
315,67,
319,73,
319,85,
317,99,
317,119,
318,138,
316,162,
320,186,
320,214,
317,240,
321,266,
322,293,
320,320,
321,346,
320,373,
321,397,
322,419,
323,439,
326,459,
327,479,
326,493,
331,506,
330,518,
332,527,
332,535,
335,541,
338,543,
339,544,
333,544,
335,540,
336,534,
333,524,
338,514,
336,503,
332,493,
334,482,
337,469,
333,452,
337,442,
336,425,
337,412,
339,395,
342,378,
340,365,
340,349,
337,336,
339,321,
343,306,
337,293,
341,282,
336,270,
338,258,
340,248,
340,238,
338,229,
339,223,
335,214,
334,208,
333,206,
333,201,
331,200,
330,195,
331,193,
332,193,
325,194,
326,193,
327,195,
327,196,
328,200,
326,202,
326,206,
326,207,
327,210,
327,214,
330,218,
323,223,
323,227,
326,228,
325,233,
325,236,
324,238,
325,242,
325,244,
325,247,
326,251,
325,254,
324,258,
324,262,
326,266,
324,273,
322,282,
320,290,
323,303,
323,316,
325,337,
324,362,
326,390,
326,422,
330,462,
329,504,
330,555,
333,609,
336,668,
340,731,
340,797,
341,866,
341,934,
339,991,
343,992,
344,992,
343,993,
343,993,
341,993,
344,993,
345,992,
345,992,
345,993,
344,993,
349,992,
350,993,
350,992,
348,992,
351,993,
353,993,
355,992,
356,992,
355,992,
356,992,
358,992,
358,992,
357,992,
355,993,
355,993,
351,992,
353,992,
351,992,
352,993,
348,992,
348,992,
349,992,
346,992,
344,992,
343,992,
342,992,
340,992,
339,992,
334,992,
332,992,
333,992,
328,992,
329,993,
328,992,
328,992,
325,938,
329,864,
328,795,
326,725,
328,658,
325,593,
330,533,
326,476,
328,425,
327,380,
330,338,
329,301,
332,272,
330,246,
330,225,
330,208,
332,196,
331,188,
330,187,
328,187,
330,191,
332,197,
332,210,
331,223,
330,238,
330,255,
331,273,
331,293,
333,313,
330,334,
332,354,
333,374,
335,393,
334,414,
331,431,
330,447,
333,462,
334,475,
335,488,
331,497,
330,503,
330,507,
333,511,
331,513,
330,515,
333,513,
334,508,
333,503,
333,496,
331,488,
330,480,
329,468,
331,455,
331,443,
332,429,
333,414,
332,402,
333,384,
333,373,
331,358,
330,346,
328,331,
333,316,
329,303,
332,292,
331,279,
331,265,
335,254,
334,246,
335,239,
335,231,
334,224,
338,215,
331,210,
331,204,
332,203,
331,196,
334,195,
330,194,
332,194,
328,193,
330,192,
332,194,
331,197,
329,201,
328,201,
329,205,
328,208,
330,208,
330,214,
330,220,
330,222,
329,227,
330,230,
327,234,
326,240,
327,242,
328,247,
327,249,
327,252,
325,256,
326,260,
327,262,
324,263,
328,265,
327,268,
324,274,
326,275,
323,277,
326,282,
325,289,
324,294,
327,301,
327,313,
323,331,
324,350,
327,374,
326,401,
329,436,
327,475,
329,522,
331,571,
334,626,
337,685,
334,749,
335,816,
337,885,
340,954,
344,992,
340,992,
343,992,
345,993,
344,992,
345,992,
344,992,
348,992,
349,993,
349,992,
352,992,
353,993,
354,992,
354,992,
355,992,
357,992,
358,992,
359,992,
360,993,
359,992,
358,992,
359,992,
358,992,
358,992,
355,992,
355,992,
353,992,
354,992,
351,992,
351,992,
352,992,
349,992,
351,992,
348,992,
346,993,
343,992,
345,992,
341,992,
343,993,
342,991,
344,992,
340,992,
342,993,
342,992,
338,992,
336,991,
338,910,
338,839,
334,773,
332,706,
329,641,
329,580,
326,521,
327,471,
323,421,
324,380,
326,343,
324,312,
318,284,
320,263,
319,244,
319,229,
322,221,
321,217,
320,217,
320,217,
321,224,
325,234,
323,245,
321,259,
322,274,
325,291,
327,310,
327,329,
327,349,
329,369,
329,384,
330,403,
333,421,
329,436,
331,450,
331,464,
329,473,
329,484,
328,492,
331,497,
331,500,
331,500,
332,499,
332,500,
333,494,
335,489,
334,483,
336,475,
334,466,
333,453,
336,442,
334,427,
337,416,
336,404,
336,392,
338,377,
339,361,
337,346,
339,330,
337,319,
335,304,
337,289,
337,280,
339,269,
339,257,
340,248,
341,236,
339,227,
334,218,
337,212,
337,205,
332,201,
336,195,
329,193,
330,189,
330,189,
330,187,
331,187,
327,187,
327,185,
327,188,
329,188,
328,189,
331,192,
329,196,
330,199,
330,200,
328,204,
330,210,
330,214,
331,218,
329,220,
332,223,
332,228,
332,233,
330,236,
332,239,
332,241,
330,245,
331,250,
331,253,
331,253,
331,257,
331,259,
331,263,
329,264,
331,268,
331,267,
332,271,
327,276,
331,281,
327,285,
330,291,
331,300,
330,312,
332,324,
331,342,
330,366,
332,395,
329,427,
330,468,
329,509,
329,559,
331,613,
327,669,
331,730,
329,794,
332,859,
333,926,
332,990,
332,992,
332,992,
334,992,
332,992,
336,992,
335,992,
339,992,
340,993,
340,992,
345,993,
344,993,
344,993,
346,993,
348,992,
347,993,
350,993,
350,992,
351,992,
353,992,
353,992,
354,992,
351,992,
353,992,
352,992,
354,993,
351,992,
351,992,
351,992,
350,992,
351,992,
346,993,
348,993,
348,992,
344,992,
347,992,
345,992,
344,992,
344,992,
344,992,
339,992,
340,937,
335,865,
336,794,
334,721,
334,653,
333,585,
330,522,
332,462,
330,405,
331,354,
328,309,
330,267,
331,231,
333,201,
330,175,
331,153,
330,138,
334,128,
333,121,
334,120,
335,123,
331,130,
334,143,
335,157,
336,174,
334,196,
333,214,
334,239,
330,262,
334,288,
330,315,
332,343,
328,369,
333,395,
331,418,
332,444,
334,465,
330,482,
334,500,
336,517,
334,532,
333,543,
332,553,
334,559,
333,562,
334,566,
332,566,
328,564,
334,558,
330,550,
331,543,
330,532,
331,519,
332,507,
334,492,
331,480,
334,466,
334,451,
335,434,
335,419,
335,404,
334,388,
335,373,
332,353,
337,341,
338,328,
339,313,
338,300,
336,289,
340,277,
341,266,
341,257,
339,248,
339,239,
343,231,
343,226,
340,221,
337,216,
340,214,
340,210,
339,208,
336,206,
337,206,
336,207,
333,204,
338,206,
334,210,
334,208,
330,212,
330,212,
332,216,
331,221,
331,226,
328,226,
328,227,
325,232,
326,234,
324,238,
321,242,
325,243,
324,247,
323,249,
319,252,
319,254,
323,257,
321,259,
322,263,
320,267,
322,270,
320,275,
323,281,
324,287,
324,298,
322,309,
324,325,
324,344,
324,368,
325,394,
324,428,
328,463,
329,504,
327,550,
329,603,
328,659,
329,717,
332,779,
330,842,
329,905,
325,968,
327,992,
329,992,
330,992,
328,992,
329,992,
330,992,
334,993,
334,993,
332,993,
336,992,
338,992,
338,992,
345,992,
343,992,
348,992,
349,992,
350,992,
350,993,
349,992,
352,993,
352,992,
354,992,
354,992,
355,993,
352,993,
352,992,
352,992,
349,993,
346,992,
348,992,
346,992,
347,992,
343,991,
344,992,
342,992,
342,992,
338,992,
340,910,
339,844,
336,773,
339,702,
338,631,
337,564,
339,498,
338,435,
334,376,
338,320,
334,270,
332,227,
334,185,
334,151,
330,119,
333,94,
330,75,
330,60,
325,50,
327,45,
327,44,
326,49,
325,55,
324,68,
327,82,
327,102,
327,123,
326,149,
324,175,
324,203,
326,232,
325,261,
324,290,
325,319,
322,348,
322,375,
326,402,
327,427,
326,450,
325,472,
329,494,
326,510,
329,527,
326,541,
327,549,
332,558,
331,562,
329,567,
330,568,
331,567,
329,562,
329,557,
332,550,
333,541,
330,529,
333,516,
333,500,
335,485,
335,471,
334,456,
335,439,
335,421,
334,406,
336,389,
335,374,
333,357,
335,341,
339,326,
336,308,
337,293,
336,278,
335,267,
337,254,
335,245,
335,231,
332,223,
336,213,
336,206,
334,202,
335,195,
331,191,
334,186,
334,185,
331,181,
330,181,
330,179,
326,181,
329,185,
329,186,
329,189,
329,192,
327,195,
330,197,
330,202,
327,208,
327,210,
331,214,
331,218,
330,222,
331,225,
331,229,
331,234,
330,234,
328,240,
329,245,
328,248,
326,250,
328,256,
325,258,
328,264,
327,269,
326,274,
329,279,
330,287,
331,298,
326,309,
328,326,
329,345,
327,371,
329,401,
330,439,
331,478,
331,523,
331,574,
333,631,
332,691,
336,753,
337,818,
336,888,
338,956,
334,992,
335,992,
336,992,
339,991,
337,992,
340,993,
339,992,
341,993,
343,992,
348,992,
345,992,
348,992,
351,992,
351,993,
349,993,
350,992,
352,992,
351,992,
349,992,
350,992,
351,992,
348,992,
351,993,
349,992,
348,992,
348,992,
346,993,
347,992,
344,992,
347,992,
341,992,
341,992,
343,992,
344,992,
344,992,
341,993,
339,993,
337,992,
337,993,
341,992,
336,992,
340,992,
339,992,
337,992,
338,935,
335,865,
333,795,
333,727,
332,659,
330,595,
330,534,
328,477,
327,424,
328,375,
327,331,
325,294,
323,259,
325,231,
325,207,
324,190,
325,177,
323,167,
323,163,
323,161,
324,162,
324,171,
324,178,
324,192,
327,207,
327,223,
332,241,
328,262,
331,284,
333,306,
335,328,
333,351,
337,373,
338,392,
338,412,
342,428,
341,447,
341,463,
340,476,
339,487,
341,494,
340,504,
339,511,
339,514,
341,514,
340,514,
336,511,
338,510,
337,504,
335,495,
334,485,
336,478,
334,468,
333,455,
334,442,
333,427,
333,413,
332,398,
334,384,
330,371,
335,356,
331,340,
331,327,
329,314,
329,299,
329,285,
332,273,
327,264,
324,250,
326,242,
326,233,
324,226,
322,218,
324,211,
321,206,
322,199,
321,195,
324,194,
320,191,
319,189,
321,187,
320,186,
320,186,
319,188,
321,190,
322,191,
321,192,
322,197,
324,199,
326,202,
325,205,
330,208,
326,212,
328,216,
328,219,
331,224,
329,225,
332,230,
329,233,
332,239,
332,244,
334,246,
333,249,
332,254,
335,258,
330,260,
336,267,
337,276,
332,285,
334,295,
331,308,
335,325,
335,347,
335,373,
331,402,
333,439,
333,479,
333,523,
330,574,
334,631,
333,690,
334,752,
335,819,
332,887,
334,952,
336,992,
338,992,
341,992,
343,992,
342,992,
341,992,
344,992,
344,992,
348,992,
348,992,
350,992,
352,992,
354,992,
355,992,
355,992,
355,992,
354,992,
355,992,
357,992,
357,992,
356,992,
356,993,
359,992,
355,992,
355,993,
350,992,
349,992,
348,992,
348,992,
348,992,
345,992,
346,992,
346,992,
340,993,
341,992,
341,992,
342,992,
338,992,
340,992,
338,992,
333,992,
332,991,
333,919,
332,850,
329,780,
327,709,
326,642,
324,575,
327,513,
322,452,
322,399,
321,350,
325,304,
325,267,
323,232,
320,202,
322,176,
322,156,
321,141,
322,130,
323,125,
323,124,
323,126,
325,130,
325,141,
328,155,
323,172,
328,188,
331,208,
328,229,
329,253,
326,276,
327,300,
328,323,
331,346,
331,368,
331,388,
331,409,
330,430,
330,447,
329,464,
328,476,
331,487,
329,496,
331,506,
329,511,
329,516,
332,517,
332,516,
333,514,
330,511,
332,505,
330,496,
335,488,
338,479,
336,467,
337,455,
338,443,
341,429,
336,417,
334,402,
337,387,
334,373,
337,357,
337,341,
336,327,
333,312,
336,298,
337,284,
337,272,
334,261,
333,250,
336,239,
336,230,
336,221,
335,214,
336,206,
336,201,
336,195,
337,190,
333,189,
332,186,
328,185,
332,181,
332,181,
327,180,
325,182,
325,182,
325,184,
326,186,
325,188,
323,194,
321,198,
323,202,
322,204,
322,208,
320,213,
320,215,
322,220,
322,224,
323,229,
325,236,
322,239,
325,244,
328,244,
326,251,
331,257,
333,259,
331,261,
336,264,
336,268,
336,272,
333,273,
336,276,
339,276,
341,281,
339,283,
339,285,
337,286,
337,287,
341,288,
341,290,
340,292,
339,294,
339,298,
337,300,
336,306,
333,315,
334,324,
334,336,
332,353,
333,377,
331,401,
329,435,
328,472,
330,517,
325,566,
329,620,
325,677,
329,741,
329,805,
332,873,
332,942,
333,992,
335,992,
336,993,
336,992,
334,993,
334,992,
336,992,
339,992,
339,992,
340,992,
340,992,
344,992,
344,992,
349,992,
350,992,
351,992,
350,993,
352,992,
351,992,
350,993,
351,992,
350,992,
352,992,
353,993,
353,993,
352,993,
347,993,
353,992,
347,992,
350,992,
347,992,
347,992,
347,992,
343,993,
341,992,
343,992,
341,992,
343,992,
337,992,
337,992,
336,992,
335,993,
335,922,
335,850,
334,778,
331,706,
332,637,
333,570,
332,506,
332,446,
332,391,
330,342,
333,295,
330,255,
335,221,
328,193,
330,169,
327,149,
329,134,
331,124,
329,122,
329,124,
327,127,
326,136,
327,148,
324,165,
328,183,
327,202,
326,226,
327,250,
328,274,
326,301,
327,327,
324,351,
325,379,
326,405,
325,431,
326,450,
329,475,
328,494,
327,512,
328,527,
328,542,
330,552,
332,563,
330,569,
331,573,
331,573,
334,574,
332,572,
331,565,
331,560,
332,551,
332,540,
329,527,
332,513,
331,501,
331,485,
332,468,
333,453,
331,436,
330,417,
332,402,
332,384,
337,369,
335,351,
334,338,
334,322,
334,306,
333,293,
337,282,
334,269,
336,259,
337,247,
338,239,
334,230,
332,223,
334,215,
334,210,
335,204,
332,201,
329,199,
329,197,
327,194,
327,194,
326,195,
325,196,
322,198,
326,198,
327,199,
327,204,
326,210,
326,212,
329,216,
330,220,
330,224,
333,230,
331,235,
332,239,
332,243,
334,248,
335,252,
333,256,
331,262,
335,263,
334,269,
333,272,
330,275,
328,277,
331,280,
328,282,
331,286,
329,287,
329,290,
327,292,
329,294,
330,297,
327,301,
329,305,
328,310,
330,315,
328,324,
330,335,
329,350,
331,367,
331,392,
330,418,
334,452,
331,489,
329,529,
332,575,
331,626,
331,680,
333,735,
332,793,
335,856,
334,914,
334,973,
334,992,
337,992,
335,992,
336,992,
337,991,
333,992,
338,992,
337,992,
340,992,
339,992,
340,992,
344,992,
345,993,
345,992,
346,992,
345,992,
340,992,
346,992,
348,992,
347,992,
346,993,
346,992,
349,992,
346,992,
344,992,
343,992,
342,992,
341,993,
342,992,
337,992,
338,992,
340,992,
341,992,
341,993,
341,954,
336,888,
339,823,
339,757,
342,689,
340,624,
337,561,
334,500,
335,439,
335,384,
334,333,
332,287,
330,243,
332,203,
334,165,
329,135,
331,109,
327,89,
328,74,
326,60,
325,51,
325,52,
323,54,
323,57,
321,66,
325,81,
325,98,
323,117,
324,139,
327,163,
329,188,
328,216,
328,246,
331,276,
330,304,
333,334,
327,363,
330,391,
330,416,
333,442,
333,467,
331,488,
330,508,
328,526,
329,543,
331,556,
334,570,
330,578,
332,585,
334,590,
332,591,
330,592,
331,589,
333,584,
336,577,
333,568,
332,560,
335,548,
333,536,
336,520,
336,505,
337,489,
335,474,
337,457,
339,441,
340,424,
339,408,
339,392,
339,376,
339,358,
338,343,
338,329,
339,315,
333,303,
337,290,
333,277,
335,267,
335,260,
334,249,
335,242,
334,233,
331,228,
333,223,
331,221,
331,217,
333,214,
332,213,
332,213,
329,212,
332,213,
332,213,
332,214,
326,217,
329,220,
330,221,
332,225,
331,228,
327,230,
329,236,
329,240,
328,243,
333,248,
331,249,
329,254,
330,258,
331,261,
335,267,
332,270,
332,271,
332,275,
331,277,
332,281,
334,285,
333,287,
334,290,
333,295,
336,300,
336,306,
335,316,
336,328,
338,344,
337,363,
335,387,
336,414,
337,448,
336,484,
335,526,
333,575,
332,628,
331,683,
332,741,
328,801,
332,866,
331,928,
332,989,
333,992,
335,992,
334,992,
334,992,
335,993,
335,992,
338,992,
336,993,
337,992,
338,992,
341,992,
343,992,
343,992,
345,992,
345,992,
346,993,
350,992,
346,992,
350,993,
350,993,
350,992,
351,993,
349,992,
348,992,
346,992,
344,992,
347,993,
346,992,
340,992,
342,992,
341,992,
339,992,
341,992,
338,993,
336,993,
337,992,
335,993,
338,992,
335,986,
335,909,
335,844,
337,775,
335,707,
333,642,
332,580,
331,518,
332,460,
331,407,
333,358,
331,312,
330,273,
331,237,
332,205,
331,180,
332,159,
332,143,
330,132,
330,122,
333,120,
332,122,
327,126,
328,133,
331,147,
330,163,
328,182,
330,202,
331,223,
331,246,
330,270,
333,297,
330,322,
333,349,
335,374,
331,398,
335,423,
335,447,
332,468,
332,486,
333,505,
330,521,
331,538,
333,551,
334,558,
332,567,
333,571,
329,572,
330,575,
331,570,
327,568,
332,563,
329,555,
328,547,
330,534,
328,524,
330,512,
331,498,
328,484,
329,470,
328,453,
330,440,
332,426,
330,409,
332,394,
333,376,
333,363,
333,351,
338,336,
340,323,
338,308,
338,300,
343,289,
341,277,
344,266,
341,256,
342,250,
344,246,
344,239,
342,235,
341,229,
342,226,
341,224,
338,223,
338,221,
339,221,
337,221,
338,221,
340,223,
339,226,
338,225,
336,229,
335,232,
335,235,
331,239,
332,240,
330,243,
327,247,
328,250,
326,252,
323,255,
323,258,
322,262,
318,263,
320,266,
322,268,
319,273,
318,276,
319,279,
319,279,
321,282,
320,286,
320,289,
318,294,
319,301,
323,307,
320,315,
320,329,
322,343,
319,362,
321,386,
322,414,
319,447,
320,486,
321,531,
323,577,
326,629,
326,689,
327,752,
325,813,
333,878,
334,942,
341,992,
341,992,
342,992,
345,992,
346,992,
348,992,
349,992,
348,993,
349,993,
353,992,
355,992,
357,993,
356,992,
357,992,
361,992,
359,992,
360,992,
357,993,
357,993,
358,993,
357,993,
354,992,
354,993,
351,992,
358,993,
351,992,
355,992,
350,993,
351,992,
352,992,
348,992,
350,993,
350,992,
350,993,
350,992,
346,992,
347,993,
345,992,
343,991,
342,992,
341,992,
340,992,
339,992,
337,923,
339,855,
339,786,
336,721,
333,655,
333,593,
331,533,
330,476,
329,426,
329,379,
326,338,
325,302,
324,269,
324,244,
321,224,
324,206,
320,191,
326,184,
322,180,
322,181,
320,186,
322,192,
325,203,
323,217,
322,232,
323,251,
320,273,
323,291,
324,314,
324,336,
326,359,
324,380,
328,403,
327,424,
326,444,
324,463,
323,480,
330,496,
330,509,
332,522,
328,532,
332,542,
333,546,
335,551,
333,553,
333,551,
334,550,
335,544,
337,539,
335,532,
341,523,
338,513,
337,500,
339,488,
340,477,
337,464,
335,448,
336,435,
336,419,
337,406,
335,391,
332,377,
330,362,
331,347,
333,335,
334,320,
330,307,
333,299,
330,283,
330,274,
330,264,
329,255,
324,247,
330,238,
325,232,
329,230,
327,227,
328,220,
329,219,
329,216,
326,217,
327,217,
324,216,
327,216,
325,217,
327,220,
324,221,
327,224,
328,226,
328,231,
329,234,
329,237,
329,240,
330,242,
329,249,
329,250,
327,256,
326,261,
327,264,
331,267,
333,273,
329,274,
330,278,
332,280,
332,283,
332,285,
331,287,
334,290,
331,289,
336,290,
333,290,
332,293,
328,294,
334,296,
333,297,
332,301,
330,303,
330,307,
330,313,
333,321,
331,331,
331,346,
330,362,
332,385,
331,412,
330,445,
324,482,
325,522,
322,571,
327,623,
328,680,
328,741,
328,802,
329,864,
331,931,
331,991,
329,992,
333,992,
334,992,
337,992,
337,992,
341,993,
341,992,
342,992,
348,992,
349,991,
349,992,
351,992,
354,993,
355,992,
356,993,
355,992,
357,992,
356,992,
358,992,
361,992,
362,992,
357,992,
356,992,
357,992,
355,992,
358,992,
354,992,
349,992,
353,992,
350,993,
347,992,
348,992,
346,992,
345,993,
344,992,
343,992,
343,993,
339,993,
340,992,
342,992,
341,992,
336,991,
340,909,
336,839,
339,770,
336,703,
332,638,
332,574,
333,514,
330,458,
330,410,
331,365,
330,326,
332,289,
336,257,
332,229,
334,210,
332,196,
332,181,
333,174,
335,173,
333,174,
331,180,
330,188,
335,201,
332,215,
333,234,
330,253,
330,273,
331,293,
330,318,
329,341,
331,366,
332,387,
335,410,
333,431,
337,451,
333,467,
336,488,
335,502,
338,515,
338,528,
336,539,
333,546,
338,551,
336,553,
332,555,
332,553,
331,550,
328,545,
332,539,
330,529,
329,520,
329,510,
329,497,
328,483,
329,470,
329,457,
327,441,
327,427,
330,411,
332,395,
331,381,
331,365,
332,354,
332,336,
333,325,
335,313,
334,300,
333,289,
335,278,
332,268,
332,259,
333,252,
331,248,
331,239,
330,234,
329,232,
329,228,
331,225,
331,223,
333,223,
333,223,
331,222,
331,223,
331,223,
328,225,
327,229,
329,230,
327,233,
329,237,
326,240,
332,244,
327,246,
328,248,
331,252,
334,256,
332,262,
335,264,
333,265,
334,269,
335,272,
335,276,
333,280,
330,282,
333,283,
329,285,
329,285,
332,288,
327,290,
329,291,
329,294,
328,296,
325,299,
325,299,
325,302,
325,306,
326,312,
326,319,
324,331,
328,343,
323,359,
326,383,
324,411,
322,440,
325,474,
325,516,
324,562,
324,612,
325,668,
325,723,
327,785,
329,848,
328,910,
331,973,
334,992,
337,993,
337,992,
338,992,
340,992,
343,992,
347,992,
347,992,
350,992,
349,992,
352,992,
353,992,
358,992,
353,992,
353,992,
356,992,
360,992,
357,992,
357,992,
357,991,
355,992,
357,992,
357,992,
356,992,
352,992,
350,992,
351,992,
353,992,
350,992,
350,992,
345,992,
349,992,
347,992,
345,992,
341,992,
342,992,
341,992,
339,992,
338,933,
335,862,
333,794,
331,725,
331,656,
332,590,
330,526,
330,464,
328,412,
327,356,
330,308,
330,266,
331,228,
326,196,
332,165,
331,143,
328,124,
330,111,
327,104,
330,98,
330,98,
329,104,
328,115,
328,127,
327,144,
329,162,
327,184,
325,210,
327,235,
326,262,
326,289,
326,319,
322,347,
326,376,
327,404,
328,428,
327,455,
329,482,
330,502,
333,522,
336,541,
337,559,
334,574,
337,586,
338,593,
339,598,
339,604,
340,606,
338,606,
340,602,
339,597,
340,591,
336,581,
336,572,
337,559,
336,544,
334,530,
336,515,
339,499,
337,481,
335,464,
337,447,
337,430,
337,414,
337,395,
339,379,
336,364,
335,348,
332,332,
337,318,
338,303,
338,289,
334,275,
334,266,
331,254,
334,244,
335,236,
336,230,
333,222,
330,217,
334,212,
334,209,
332,206,
333,206,
332,203,
331,204,
331,202,
329,204,
325,204,
327,209,
329,208,
328,212,
326,214,
328,218,
329,218,
327,222,
328,225,
326,232,
326,233,
327,237,
330,240,
326,244,
331,246,
328,251,
330,254,
332,255,
328,259,
331,264,
327,268,
330,274,
329,278,
330,283,
329,294,
329,305,
329,319,
327,335,
330,354,
328,381,
327,409,
326,443,
328,481,
329,526,
323,573,
329,629,
326,689,
327,748,
327,813,
330,879,
329,944,
330,992,
331,993,
334,993,
335,992,
336,992,
340,992,
334,992,
340,992,
341,992,
342,992,
342,992,
345,993,
345,992,
351,992,
348,993,
349,991,
352,992,
356,992,
355,992,
354,992,
353,992,
353,992,
352,992,
350,992,
349,993,
355,993,
353,993,
357,992,
352,992,
352,992,
355,992,
349,992,
354,993,
354,992,
353,992,
353,992,
350,992,
351,992,
348,992,
346,991,
344,992,
342,992,
341,940,
339,873,
339,807,
337,740,
338,674,
336,610,
334,551,
334,497,
333,445,
331,400,
331,356,
333,319,
327,288,
331,262,
330,239,
324,221,
329,208,
327,199,
328,195,
327,196,
322,200,
327,208,
328,217,
328,230,
325,246,
327,262,
326,281,
327,304,
328,326,
327,345,
329,368,
332,388,
331,408,
332,428,
333,445,
332,464,
335,480,
334,494,
336,508,
335,518,
337,527,
334,533,
336,537,
335,542,
335,542,
335,540,
336,536,
335,529,
334,523,
335,514,
336,503,
333,491,
333,478,
333,466,
332,454,
335,439,
334,425,
333,409,
335,395,
332,381,
328,364,
331,351,
333,334,
331,321,
329,307,
333,296,
334,280,
333,271,
331,261,
335,251,
330,242,
331,233,
333,225,
329,221,
329,212,
331,209,
332,204,
335,201,
329,199,
328,196,
329,199,
330,197,
329,198,
329,198,
331,202,
330,202,
331,204,
332,208,
331,208,
330,213,
328,214,
329,219,
331,221,
335,225,
333,229,
332,233,
333,235,
335,238,
333,242,
334,247,
335,251,
335,254,
337,259,
336,264,
336,271,
333,277,
331,285,
331,294,
333,306,
334,323,
332,348,
331,369,
334,401,
332,434,
330,476,
332,520,
332,571,
333,626,
331,684,
335,751,
335,815,
335,885,
335,956,
338,992,
337,992,
338,993,
337,992,
338,992,
340,993,
339,992,
340,992,
346,993,
346,992,
350,992,
349,992,
351,992,
352,992,
351,992,
352,991,
355,993,
353,992,
352,992,
354,992,
356,992,
356,992,
357,992,
353,993,
354,992,
358,992,
355,992,
352,992,
354,992,
355,992,
354,992,
354,992,
352,992,
353,992,
350,992,
346,992,
349,993,
348,993,
345,992,
344,992,
344,992,
346,993,
346,992,
343,993,
344,989,
340,906,
340,835,
339,768,
336,702,
332,636,
334,575,
332,516,
331,464,
329,416,
331,375,
325,334,
326,300,
323,272,
323,250,
322,232,
318,216,
319,206,
318,201,
319,199,
319,202,
318,209,
320,216,
320,227,
321,241,
319,257,
319,274,
321,292,
319,311,
322,332,
324,352,
326,372,
328,389,
329,408,
331,426,
328,441,
333,455,
335,467,
335,477,
335,489,
337,494,
336,500,
337,502,
337,503,
342,505,
340,502,
340,497,
339,491,
340,483,
337,476,
337,465,
336,455,
337,443,
337,431,
337,419,
338,406,
336,391,
337,378,
336,362,
337,350,
337,335,
332,321,
336,308,
333,292,
335,281,
334,268,
328,258,
329,248,
334,238,
333,229,
333,222,
331,215,
330,206,
330,203,
330,199,
330,195,
327,192,
327,190,
327,188,
325,186,
325,188,
326,190,
326,188,
326,191,
329,192,
328,195,
327,196,
329,200,
329,201,
332,205,
333,210,
330,213,
332,217,
333,220,
335,223,
336,228,
335,231,
337,234,
335,236,
336,238,
336,241,
336,245,
335,248,
337,249,
336,249,
337,251,
335,257,
332,259,
334,261,
334,263,
332,267,
332,272,
333,279,
330,288,
332,298,
331,315,
327,333,
326,356,
325,384,
324,416,
324,455,
324,500,
320,547,
324,602,
326,660,
324,725,
324,792,
323,861,
327,928,
330,991,
327,992,
327,992,
334,992,
332,992,
335,992,
340,992,
337,992,
339,992,
342,992,
345,992,
345,992,
347,992,
348,993,
351,993,
354,992,
355,993,
355,993,
353,993,
355,992,
355,993,
358,992,
355,993,
354,992,
352,992,
352,992,
355,992,
354,992,
351,993,
352,992,
354,992,
352,992,
353,992,
350,992,
347,992,
352,993,
354,992,
353,993,
350,992,
350,992,
350,992,
347,993,
345,993,
344,957,
341,883,
344,812,
339,739,
340,670,
340,604,
338,540,
335,479,
336,423,
336,378,
333,331,
332,294,
331,260,
331,231,
324,207,
327,189,
325,176,
325,170,
325,165,
324,168,
326,172,
324,180,
324,190,
326,206,
326,223,
323,244,
326,264,
324,285,
326,306,
327,331,
325,354,
323,377,
321,397,
325,420,
322,440,
325,458,
324,473,
324,490,
325,502,
328,513,
330,522,
330,529,
331,534,
328,534,
328,535,
330,532,
329,530,
330,524,
334,513,
333,503,
333,494,
332,482,
335,468,
335,456,
336,440,
332,427,
336,411,
333,396,
336,380,
334,364,
335,350,
334,334,
333,319,
336,304,
332,288,
335,277,
333,264,
332,254,
331,245,
332,232,
332,223,
329,217,
330,211,
328,206,
328,199,
327,196,
331,194,
328,192,
330,190,
330,191,
326,189,
330,191,
328,192,
327,193,
328,193,
329,197,
326,201,
328,203,
329,206,
330,210,
331,215,
333,219,
329,222,
331,228,
331,230,
333,235,
328,239,
331,242,
332,244,
332,247,
332,249,
331,250,
333,256,
332,259,
329,259,
332,261,
331,264,
329,264,
329,264,
328,266,
332,270,
331,274,
331,279,
328,283,
332,289,
331,299,
330,313,
329,330,
328,350,
331,377,
329,404,
330,441,
330,482,
328,527,
331,577,
332,633,
327,693,
327,756,
332,819,
334,884,
334,950,
336,992,
334,992,
336,993,
340,992,
340,992,
340,992,
342,992,
341,993,
343,992,
344,993,
346,992,
349,992,
348,992,
348,992,
351,992,
354,992,
352,993,
351,992,
355,993,
356,993,
356,992,
353,992,
354,992,
352,992,
352,993,
350,992,
352,992,
349,992,
348,992,
348,992,
349,991,
348,992,
348,992,
349,992,
348,992,
345,992,
343,992,
343,993,
341,992,
340,915,
342,842,
341,772,
338,701,
340,633,
340,563,
338,497,
340,437,
337,380,
338,331,
340,281,
339,239,
338,203,
337,173,
335,148,
335,126,
333,110,
331,99,
329,97,
329,96,
327,101,
330,108,
328,121,
327,137,
328,156,
327,177,
326,202,
328,228,
323,254,
325,284,
323,311,
326,340,
326,368,
322,397,
324,420,
325,447,
326,469,
326,490,
322,511,
329,530,
327,543,
332,554,
334,565,
332,572,
332,576,
332,578,
336,577,
336,575,
337,570,
338,564,
333,555,
337,543,
338,532,
337,518,
339,504,
336,489,
338,472,
337,456,
336,439,
332,421,
333,402,
332,388,
332,368,
334,353,
333,338,
329,321,
333,302,
329,289,
329,274,
330,264,
324,253,
326,241,
324,231,
324,223,
323,216,
323,209,
321,202,
327,199,
325,193,
326,193,
326,190,
327,186,
328,186,
328,186,
331,188,
329,188,
328,190,
332,191,
330,195,
329,198,
330,201,
328,205,
331,209,
335,213,
332,218,
330,221,
328,224,
331,226,
332,230,
329,235,
330,237,
330,238,
330,242,
329,247,
331,250,
331,256,
327,257,
333,262,
331,267,
333,273,
333,281,
331,289,
334,300,
334,315,
329,334,
333,357,
332,384,
332,418,
334,452,
335,496,
336,544,
336,598,
335,653,
337,714,
334,779,
335,843,
336,911,
334,978,
337,992,
340,992,
338,992,
340,992,
339,992,
342,992,
337,992,
340,992,
342,993,
341,993,
343,992,
343,992,
347,993,
346,993,
348,993,
350,992,
348,992,
352,992,
349,992,
352,992,
355,992,
358,992,
355,993,
353,993,
353,992,
353,992,
351,992,
348,992,
350,992,
347,992,
349,993,
346,992,
344,992,
342,992,
340,992,
337,992,
340,992,
341,992,
339,992,
338,992,
339,992,
340,929,
340,860,
339,792,
338,721,
341,655,
336,587,
338,526,
338,467,
332,416,
332,364,
334,320,
333,280,
333,246,
330,217,
330,191,
331,172,
328,156,
332,147,
331,141,
331,138,
332,142,
332,150,
330,160,
328,174,
326,190,
327,208,
327,229,
326,253,
324,276,
326,297,
326,320,
329,346,
328,370,
326,392,
329,415,
328,433,
331,451,
332,465,
330,483,
327,496,
331,506,
331,515,
333,522,
332,528,
334,530,
336,529,
335,525,
336,525,
336,518,
336,511,
339,501,
335,492,
335,479,
335,469,
333,456,
334,441,
333,426,
335,412,
332,395,
331,380,
334,365,
331,348,
331,333,
330,319,
331,306,
330,291,
331,277,
332,266,
329,253,
329,243,
329,231,
328,223,
327,215,
325,209,
327,202,
329,198,
332,192,
330,190,
330,188,
331,188,
329,185,
334,185,
330,185,
333,188,
331,190,
333,190,
334,192,
333,194,
335,198,
331,202,
333,207,
335,209,
336,213,
334,217,
334,220,
335,225,
334,225,
337,228,
335,234,
335,237,
334,239,
333,242,
334,243,
335,251,
332,253,
332,259,
334,261,
335,264,
333,270,
331,273,
330,279,
329,285,
333,295,
331,305,
332,318,
327,336,
333,358,
329,384,
332,417,
330,453,
327,495,
332,541,
332,594,
332,652,
332,713,
332,780,
328,849,
333,917,
329,986,
333,992,
333,992,
332,992,
334,992,
337,992,
338,992,
336,993,
342,992,
345,993,
348,993,
350,992,
352,993,
350,992,
352,992,
355,992,
354,993,
356,993,
353,993,
355,992,
356,992,
355,993,
353,992,
353,992,
354,992,
351,992,
353,992,
350,993,
349,992,
346,993,
347,992,
344,992,
342,992,
342,992,
340,992,
339,992,
337,993,
335,992,
334,993,
334,992,
333,993,
331,992,
329,991,
330,992,
329,993,
328,992,
328,937,
327,869,
325,800,
329,732,
326,665,
327,604,
328,545,
327,490,
328,442,
328,395,
329,357,
333,321,
329,293,
331,266,
333,245,
336,231,
333,219,
333,213,
332,207,
333,209,
334,215,
331,222,
330,232,
332,243,
332,256,
331,272,
331,292,
328,309,
325,328,
326,344,
326,362,
328,379,
321,396,
324,413,
326,427,
323,441,
328,455,
328,465,
329,474,
329,479,
332,484,
332,486,
330,488,
333,490,
334,487,
334,484,
337,479,
337,472,
336,466,
336,457,
341,444,
337,433,
336,420,
337,406,
337,394,
337,379,
338,366,
336,352,
332,336,
333,323,
334,307,
333,294,
333,282,
333,268,
332,257,
333,243,
332,233,
332,223,
329,214,
329,204,
329,197,
332,192,
327,187,
329,182,
330,176,
331,175,
331,172,
329,172,
329,172,
331,173,
330,173,
328,175,
329,177,
329,178,
330,180,
332,184,
332,189,
331,192,
329,195,
331,198,
332,201,
332,207,
332,209,
332,214,
329,216,
330,220,
330,223,
327,227,
328,230,
324,231,
325,236,
328,237,
326,242,
327,242,
325,243,
327,246,
324,247,
327,249,
326,253,
327,253,
328,256,
329,258,
330,262,
330,266,
330,270,
330,275,
329,281,
330,292,
328,307,
331,325,
328,345,
329,370,
329,403,
327,437,
325,480,
325,526,
328,575,
330,632,
328,695,
329,759,
331,827,
336,894,
335,964,
337,992,
337,992,
336,992,
341,993,
342,992,
346,993,
345,993,
347,993,
349,993,
353,992,
349,992,
351,992,
356,993,
359,992,
358,992,
354,992,
357,993,
360,992,
359,992,
356,993,
356,992,
356,992,
356,992,
356,993,
355,992,
353,993,
351,992,
350,992,
348,992,
348,992,
347,992,
345,992,
344,993,
343,992,
343,992,
338,992,
340,992,
333,992,
338,993,
338,993,
338,993,
336,992,
334,960,
333,891,
334,817,
332,751,
329,683,
328,619,
327,555,
325,496,
326,443,
321,393,
322,346,
321,307,
320,271,
322,242,
322,218,
320,198,
323,180,
326,170,
326,162,
327,161,
324,161,
326,165,
329,175,
328,186,
332,203,
332,219,
334,238,
337,256,
338,277,
338,299,
339,321,
340,346,
343,366,
341,388,
344,411,
343,431,
343,448,
343,463,
342,478,
340,491,
341,501,
337,509,
342,516,
340,520,
337,524,
337,526,
338,524,
338,520,
337,515,
339,508,
335,500,
333,489,
334,479,
334,466,
334,454,
334,439,
332,425,
334,412,
331,395,
334,380,
331,366,
332,352,
329,336,
331,323,
331,309,
330,297,
326,284,
329,271,
332,258,
330,249,
330,240,
329,231,
328,220,
330,215,
328,208,
331,203,
329,199,
331,195,
328,193,
328,191,
329,190,
329,190,
327,190,
333,192,
329,193,
330,195,
329,196,
332,198,
335,203,
331,204,
332,211,
332,213,
329,216,
330,220,
331,223,
331,230,
331,231,
331,234,
331,239,
331,240,
333,246,
334,249,
332,252,
330,254,
332,256,
332,259,
330,262,
330,264,
333,268,
329,269,
332,276,
331,278,
329,285,
330,292,
328,301,
331,316,
329,331,
330,352,
332,377,
332,405,
331,439,
330,478,
330,520,
331,569,
330,620,
331,676,
331,736,
331,797,
333,859,
335,920,
337,983,
335,992,
339,992,
339,992,
341,992,
344,992,
347,992,
347,992,
347,992,
349,992,
348,992,
348,992,
346,992,
351,993,
352,993,
351,992,
354,992,
353,992,
352,992,
353,993,
349,992,
352,992,
349,992,
349,992,
346,992,
348,992,
349,992,
346,992,
341,992,
345,992,
347,992,
344,992,
341,993,
344,992,
341,992,
341,992,
342,941,
342,877,
337,808,
339,745,
338,675,
341,613,
340,550,
337,489,
337,430,
341,373,
340,323,
339,277,
336,235,
338,194,
336,161,
333,130,
335,109,
334,91,
333,78,
335,68,
334,63,
330,61,
329,67,
329,75,
329,86,
328,101,
328,119,
326,140,
324,165,
327,192,
328,218,
330,247,
328,275,
326,306,
329,332,
327,362,
329,388,
326,416,
326,443,
327,464,
325,486,
326,506,
326,524,
327,540,
327,553,
331,564,
330,572,
329,578,
329,582,
328,582,
332,578,
329,576,
330,571,
331,562,
330,553,
330,540,
333,530,
332,515,
330,501,
331,486,
332,470,
331,454,
332,436,
332,420,
331,401,
332,385,
330,370,
331,354,
330,338,
333,321,
335,307,
335,294,
334,280,
333,270,
334,257,
333,247,
333,237,
334,232,
330,224,
328,218,
329,212,
326,206,
328,205,
324,199,
326,198,
325,197,
329,197,
329,196,
326,198,
325,198,
326,200,
329,200,
325,205,
327,206,
328,209,
326,212,
331,217,
329,218,
333,223,
333,227,
334,229,
333,232,
333,237,
332,240,
333,242,
334,246,
334,248,
335,252,
333,256,
332,260,
336,266,
332,273,
331,283,
330,294,
331,308,
327,325,
330,346,
331,373,
326,402,
328,438,
328,481,
327,524,
328,572,
327,630,
326,688,
328,749,
328,814,
329,877,
330,944,
328,991,
331,992,
335,992,
335,992,
337,992,
339,992,
340,992,
342,992,
344,992,
341,992,
344,992,
344,992,
348,992,
352,993,
353,992,
352,992,
353,992,
355,992,
356,992,
358,992,
356,992,
356,993,
355,992,
359,993,
356,992,
355,992,
354,992,
356,992,
355,992,
353,992,
351,992,
349,992,
350,993,
347,992,
344,992,
343,993,
341,992,
342,992,
342,992,
341,919,
340,854,
339,786,
339,719,
340,650,
340,589,
336,527,
335,466,
334,407,
336,360,
337,316,
333,272,
330,236,
331,202,
332,175,
331,153,
328,136,
326,122,
323,113,
327,110,
326,112,
322,116,
323,123,
322,135,
322,149,
325,168,
326,187,
324,207,
326,231,
326,254,
328,276,
329,304,
328,327,
329,355,
328,377,
328,401,
327,423,
329,444,
328,462,
328,477,
330,492,
326,507,
328,518,
326,525,
328,532,
330,537,
326,542,
325,543,
326,543,
326,539,
326,533,
324,527,
326,519,
327,507,
328,498,
326,483,
330,472,
330,458,
327,444,
331,429,
328,412,
328,399,
328,382,
329,369,
328,353,
329,338,
330,321,
332,310,
331,297,
330,284,
332,270,
334,260,
333,252,
334,242,
336,232,
335,225,
336,218,
331,213,
332,208,
327,204,
330,201,
328,200,
331,197,
330,196,
332,198,
333,197,
333,197,
332,198,
329,198,
331,203,
333,205,
333,207,
331,210,
332,215,
329,217,
328,221,
329,225,
327,227,
328,234,
327,237,
329,238,
330,240,
328,244,
328,247,
330,250,
328,253,
330,256,
329,262,
328,265,
328,271,
328,275,
327,283,
328,293,
326,308,
326,324,
328,347,
324,370,
324,403,
328,439,
327,481,
329,526,
332,576,
329,633,
335,693,
331,758,
333,822,
333,890,
336,959,
335,992,
335,992,
335,992,
337,992,
339,992,
337,992,
339,992,
337,992,
340,992,
340,993,
344,993,
348,993,
344,992,
350,992,
350,992,
351,992,
348,992,
350,992,
353,992,
354,992,
357,993,
352,992,
353,992,
352,992,
353,992,
349,992,
348,992,
347,992,
350,992,
350,992,
350,992,
349,992,
349,992,
350,992,
348,993,
349,992,
344,992,
345,993,
346,992,
343,992,
344,992,
342,992,
342,992,
340,992,
338,940,
339,872,
337,803,
339,736,
334,670,
334,606,
332,548,
332,494,
331,441,
330,393,
331,351,
331,312,
327,283,
329,257,
326,233,
328,215,
325,201,
326,193,
325,189,
323,188,
321,189,
321,195,
321,204,
324,216,
323,231,
323,245,
320,264,
323,283,
319,302,
322,322,
325,342,
323,361,
325,381,
324,399,
325,417,
327,431,
331,448,
331,462,
330,475,
334,485,
332,493,
333,498,
335,502,
334,505,
334,505,
336,503,
336,499,
333,493,
336,488,
336,482,
337,472,
335,461,
336,451,
336,437,
336,424,
338,409,
337,397,
338,382,
338,369,
335,354,
336,340,
335,324,
337,312,
334,299,
334,286,
330,273,
334,262,
335,251,
332,240,
333,234,
330,223,
334,214,
335,208,
330,202,
332,198,
332,194,
334,191,
333,190,
331,188,
328,186,
331,186,
331,185,
330,188,
331,190,
329,192,
327,195,
331,198,
331,200,
332,207,
328,208,
328,214,
328,216,
328,220,
328,224,
327,229,
328,234,
327,236,
329,240,
327,247,
327,248,
329,254,
330,256,
327,256,
326,261,
327,263,
326,265,
328,266,
328,269,
328,270,
326,274,
327,274,
330,278,
329,279,
327,283,
331,284,
329,288,
330,293,
329,297,
330,307,
326,317,
330,328,
331,344,
333,367,
333,393,
330,426,
335,464,
335,503,
333,551,
336,605,
334,661,
335,724,
337,790,
336,854,
337,919,
339,990,
340,993,
339,992,
341,992,
340,992,
343,992,
340,992,
343,992,
346,993,
345,992,
347,992,
344,992,
348,992,
348,992,
349,992,
349,992,
352,992,
353,992,
353,992,
356,992,
358,993,
358,992,
356,992,
355,992,
356,992,
355,992,
357,992,
353,992,
356,992,
353,992,
355,992,
354,993,
352,993,
348,992,
349,992,
348,992,
346,992,
340,993,
340,993,
338,992,
341,992,
339,992,
337,992,
336,939,
337,869,
336,802,
333,733,
331,667,
329,602,
329,541,
330,482,
328,432,
325,384,
326,338,
325,301,
327,267,
322,238,
323,213,
323,193,
323,179,
325,168,
323,164,
321,161,
323,164,
326,166,
325,176,
325,189,
323,204,
325,220,
324,238,
328,260,
322,284,
329,304,
329,326,
329,350,
329,371,
327,395,
329,416,
329,434,
334,451,
333,467,
334,481,
333,495,
333,506,
336,515,
335,523,
335,529,
332,532,
332,533,
333,531,
337,527,
334,523,
336,515,
334,507,
334,496,
333,487,
335,475,
334,464,
332,448,
333,434,
333,421,
335,409,
334,394,
334,380,
334,364,
337,350,
338,337,
338,323,
333,309,
336,297,
337,281,
338,271,
337,262,
335,250,
334,242,
336,233,
336,226,
336,218,
335,214,
334,208,
333,202,
336,200,
333,198,
332,196,
329,194,
332,193,
334,196,
328,197,
325,197,
325,201,
326,204,
328,206,
326,209,
324,215,
326,221,
326,222,
324,228,
326,236,
326,239,
322,245,
323,248,
325,252,
326,254,
324,262,
325,266,
323,267,
323,271,
325,276,
325,279,
324,281,
324,284,
326,287,
321,288,
325,292,
323,292,
327,295,
325,294,
327,297,
326,298,
325,301,
325,302,
331,306,
328,311,
323,318,
326,326,
322,337,
327,354,
328,375,
327,399,
327,428,
323,464,
328,500,
327,545,
329,594,
327,648,
327,705,
328,764,
329,827,
329,890,
329,953,
330,992,
332,992,
335,992,
332,992,
333,992,
335,992,
339,992,
339,992,
338,992,
342,992,
344,992,
344,992,
349,992,
353,993,
354,992,
349,992,
354,992,
357,992,
357,992,
355,992,
356,992,
353,992,
357,992,
354,992,
354,992,
356,992,
351,992,
352,993,
349,993,
349,992,
349,992,
352,992,
347,992,
348,992,
345,992,
346,992,
338,992,
342,920,
340,855,
339,787,
337,720,
337,652,
336,587,
337,522,
333,461,
333,403,
330,350,
333,300,
331,256,
329,214,
327,181,
326,147,
328,121,
329,99,
326,85,
328,72,
326,64,
329,61,
325,63,
328,70,
327,80,
326,93,
327,110,
329,129,
328,152,
329,177,
331,204,
332,230,
333,258,
333,288,
334,315,
334,345,
334,372,
335,400,
336,426,
336,449,
336,473,
336,494,
337,511,
335,529,
334,544,
328,555,
335,567,
333,572,
333,579,
331,582,
330,582,
332,580,
333,575,
335,570,
333,559,
330,551,
331,537,
330,526,
331,512,
332,498,
330,482,
330,469,
334,449,
333,433,
332,417,
333,401,
332,383,
328,367,
331,351,
332,338,
328,323,
330,309,
330,296,
328,286,
329,272,
326,260,
327,252,
330,240,
330,234,
330,225,
328,222,
326,217,
328,211,
327,207,
326,204,
330,204,
327,202,
328,201,
328,202,
331,202,
329,206,
329,206,
332,210,
333,211,
332,215,
332,219,
329,222,
331,222,
332,225,
333,229,
332,233,
330,235,
331,238,
330,241,
331,246,
330,250,
328,252,
327,254,
330,257,
326,262,
328,267,
331,273,
329,279,
330,289,
331,300,
330,315,
332,332,
330,354,
330,377,
332,409,
328,444,
330,485,
326,525,
331,575,
330,629,
329,686,
329,745,
330,807,
330,868,
331,931,
332,990,
329,993,
330,992,
333,992,
335,992,
336,992,
337,993,
337,992,
342,992,
345,992,
346,992,
345,992,
344,993,
348,992,
350,992,
352,992,
355,992,
354,992,
356,992,
356,993,
358,992,
357,992,
356,993,
357,992,
357,992,
355,992,
354,993,
355,993,
355,992,
351,992,
350,992,
351,993,
347,992,
347,992,
342,992,
341,993,
341,992,
340,943,
341,875,
340,810,
339,742,
340,678,
337,613,
336,550,
339,490,
334,432,
335,380,
333,331,
335,286,
338,244,
334,208,
334,175,
332,149,
333,127,
331,108,
331,95,
333,89,
329,84,
331,83,
330,89,
333,98,
332,110,
330,125,
332,142,
330,163,
328,187,
332,211,
327,239,
326,266,
327,294,
327,320,
329,350,
326,376,
325,400,
328,424,
330,448,
332,469,
333,489,
331,506,
333,522,
333,535,
334,549,
332,558,
329,564,
334,570,
333,569,
334,571,
333,569,
332,565,
330,560,
331,550,
328,540,
328,528,
325,516,
329,504,
327,487,
329,471,
325,457,
328,442,
329,426,
330,408,
327,392,
330,376,
330,362,
330,346,
332,332,
332,319,
329,307,
329,292,
333,280,
334,269,
332,257,
337,251,
333,241,
339,235,
339,227,
338,221,
339,218,
339,213,
340,209,
338,207,
341,206,
341,204,
337,207,
337,204,
336,205,
336,206,
335,209,
330,210,
332,212,
333,215,
330,216,
329,219,
328,223,
324,226,
328,230,
326,231,
326,236,
326,238,
324,243,
323,246,
323,248,
324,252,
327,259,
327,262,
329,266,
328,271,
327,281,
327,291,
326,306,
327,320,
326,341,
325,364,
327,394,
326,428,
324,466,
327,507,
327,556,
324,610,
323,666,
322,726,
327,787,
324,851,
325,917,
323,983,
325,992,
326,992,
328,993,
327,992,
329,992,
333,993,
334,992,
337,992,
340,992,
341,992,
339,993,
345,993,
348,992,
351,992,
352,992,
353,992,
355,992,
359,992,
359,992,
358,992,
362,992,
361,992,
358,992,
361,992,
358,992,
361,992,
360,993,
360,992,
357,992,
357,992,
352,992,
353,992,
350,992,
348,993,
350,993,
346,992,
348,992,
343,993,
344,992,
342,991,
342,914,
337,846,
339,778,
338,710,
337,644,
335,581,
338,520,
338,459,
336,404,
333,356,
336,311,
333,270,
334,233,
334,201,
333,176,
331,153,
331,137,
331,124,
331,117,
328,112,
329,114,
329,118,
330,126,
330,137,
329,154,
325,170,
328,192,
330,212,
331,233,
330,258,
327,282,
329,306,
330,329,
329,351,
328,375,
327,399,
327,420,
332,440,
332,456,
333,475,
333,490,
332,503,
335,511,
339,519,
337,525,
339,532,
337,534,
335,533,
337,530,
338,528,
336,522,
337,515,
335,505,
334,492,
335,483,
336,471,
336,457,
334,446,
336,431,
332,417,
335,404,
334,391,
332,374,
336,362,
335,345,
333,332,
334,320,
335,306,
335,292,
332,282,
332,271,
330,261,
327,250,
329,242,
327,233,
321,227,
323,222,
323,216,
324,209,
325,208,
324,205,
322,204,
323,202,
324,202,
321,202,
322,205,
318,203,
318,204,
321,207,
321,208,
324,210,
323,214,
326,218,
324,221,
329,222,
329,224,
327,229,
331,233,
331,237,
332,239,
335,243,
335,247,
336,252,
337,256,
337,260,
336,264,
335,270,
334,276,
335,283,
332,291,
332,302,
333,319,
329,336,
328,361,
329,383,
331,417,
332,454,
329,496,
328,545,
331,596,
325,652,
327,713,
326,777,
330,842,
327,905,
327,971,
331,992,
330,992,
335,992,
339,992,
337,992,
341,993,
341,992,
345,992,
350,992,
351,992,
352,992,
351,992,
356,992,
358,992,
360,993,
363,992,
359,992,
364,992,
363,992,
363,992,
361,992,
364,992,
363,993,
364,992,
363,992,
362,992,
359,993,
360,992,
358,992,
353,992,
352,992,
351,993,
346,993,
349,992,
347,992,
345,992,
343,992,
343,992,
343,992,
340,992,
340,992,
342,915,
337,846,
337,777,
334,706,
334,643,
332,578,
331,516,
330,458,
330,403,
327,355,
324,310,
325,271,
323,234,
323,203,
322,178,
324,159,
322,142,
326,132,
325,125,
323,124,
323,127,
320,132,
324,141,
325,154,
325,172,
321,191,
323,213,
326,236,
327,258,
329,284,
325,309,
328,336,
328,359,
333,384,
331,410,
332,433,
332,454,
333,474,
334,494,
334,510,
332,525,
334,537,
334,548,
333,554,
334,560,
332,564,
335,564,
332,562,
335,560,
333,554,
332,548,
330,537,
328,528,
333,515,
330,500,
331,487,
331,472,
329,457,
326,441,
330,424,
331,410,
327,394,
329,377,
327,363,
331,344,
332,332,
331,316,
332,302,
332,286,
330,275,
332,262,
326,251,
331,241,
330,232,
330,223,
327,218,
324,210,
327,205,
326,201,
326,197,
325,194,
321,192,
323,190,
324,191,
323,190,
324,189,
327,192,
327,194,
326,195,
326,199,
329,203,
327,207,
324,209,
327,214,
329,216,
329,220,
329,225,
330,229,
328,233,
331,234,
331,237,
332,241,
332,244,
333,246,
333,248,
334,252,
335,255,
332,260,
332,264,
333,268,
334,273,
333,280,
333,288,
331,300,
332,310,
337,329,
335,353,
332,378,
330,408,
330,444,
328,482,
330,528,
329,579,
327,635,
330,694,
330,756,
327,818,
331,885,
327,952,
332,992,
333,992,
335,992,
336,992,
335,992,
342,992,
343,992,
342,992,
345,992,
345,991,
348,992,
353,993,
352,992,
353,992,
354,993,
356,992,
358,992,
359,992,
360,992,
356,992,
358,993,
359,992,
356,992,
357,992,
353,992,
353,992,
350,992,
349,992,
351,992,
344,993,
344,992,
346,992,
343,992,
344,993,
344,992,
338,992,
342,992,
342,992,
340,992,
341,993,
338,951,
335,879,
340,811,
334,741,
335,674,
334,606,
331,544,
332,481,
333,425,
330,372,
331,324,
330,281,
330,240,
328,205,
327,177,
327,152,
329,129,
328,116,
329,108,
324,101,
324,100,
325,101,
324,108,
325,118,
322,132,
322,147,
317,167,
322,187,
323,210,
319,235,
321,259,
322,284,
323,307,
324,333,
321,358,
325,382,
322,405,
327,425,
327,445,
330,465,
328,480,
331,494,
333,507,
329,515,
333,524,
332,530,
330,534,
333,535,
334,535,
340,534,
334,529,
332,523,
338,514,
338,505,
337,495,
336,483,
335,472,
335,457,
335,444,
335,429,
330,416,
331,399,
331,385,
333,371,
332,356,
333,342,
332,327,
334,312,
333,296,
336,285,
336,273,
337,261,
334,251,
337,240,
336,232,
334,225,
330,217,
333,210,
332,204,
333,200,
329,196,
331,194,
329,192,
329,190,
328,189,
329,190,
328,192,
327,191,
326,193,
327,195,
326,198,
326,201,
326,204,
325,208,
328,211,
326,215,
325,219,
326,222,
326,228,
325,231,
327,236,
328,239,
327,243,
327,246,
328,250,
326,254,
324,257,
327,261,
325,262,
325,265,
323,270,
327,272,
326,275,
325,276,
328,279,
327,282,
330,286,
328,293,
330,299,
329,306,
328,318,
328,332,
329,350,
332,373,
331,399,
331,434,
334,473,
332,515,
337,563,
338,614,
337,673,
338,735,
335,800,
337,861,
337,931,
339,991,
340,992,
338,992,
339,992,
343,992,
342,993,
341,993,
342,992,
343,993,
344,992,
344,992,
346,992,
345,993,
348,993,
348,992,
351,993,
347,992,
348,992,
350,992,
351,992,
351,992,
353,993,
352,992,
349,993,
353,992,
356,992,
354,992,
349,992,
348,992,
347,992,
347,992,
346,992,
344,992,
342,992,
339,992,
339,992,
339,992,
336,992,
333,993,
337,992,
335,993,
335,992,
334,993,
333,992,
332,914,
335,846,
336,778,
336,711,
333,644,
335,583,
333,522,
332,466,
327,416,
330,370,
327,326,
329,289,
326,258,
326,231,
326,208,
328,188,
327,173,
327,163,
325,158,
326,157,
324,157,
327,163,
326,171,
321,183,
326,199,
326,213,
326,232,
326,252,
328,275,
330,295,
329,317,
333,340,
334,362,
335,384,
334,405,
336,424,
337,442,
340,458,
338,475,
338,487,
339,499,
340,508,
340,516,
337,519,
338,523,
