PPG A0,PPG A1,event_code
328,535,
331,539,
335,540,
337,543,
340,547,
345,553,
349,555,
352,554,
356,555,
358,556,
360,560,
363,560,
366,557,
366,555,
366,555,
367,556,
368,555,
368,551,
367,546,
364,543,
363,543,
362,540,
361,534,
358,528,
355,524,
352,521,
349,518,
346,512,
341,505,
337,501,
334,500,
330,497,
327,491,
322,484,
317,480,
313,479,
309,476,
306,470,
301,464,
297,460,
294,458,
290,456,
288,452,
286,446,
281,443,
278,444,
276,444,
273,441,
270,436,
266,435,
263,436,
262,437,
261,435,
261,433,
259,431,
257,433,
256,436,
256,435,
256,432,
254,432,
253,435,
254,437,
255,437,
256,435,
256,435,
255,436,
256,439,
257,440,
257,437,
258,437,
257,439,
256,442,
257,442,
258,441,
257,439,
257,440,
258,443,
259,445,
260,443,
261,442,
260,442,
259,444,
261,445,
261,443,
259,442,
258,442,
257,445,
257,445,
257,443,
257,441,
256,441,
255,443,
256,444,
257,442,
256,439,
257,439,
258,442,
260,442,
262,441,
264,438,
264,437,
264,440,
267,441,
267,439,
266,436,
266,435,
264,437,
264,439,
264,437,
263,434,
262,432,
259,434,
259,435,
258,434,
258,431,
255,429,
253,429,
253,432,
253,430,
252,427,
251,424,
248,425,
246,426,
244,425,
242,421,
239,419,
237,419,
236,421,
234,420,
234,418,
232,415,
230,415,
229,418,
228,419,
227,418,
226,418,
226,422,
228,429,
230,435,
234,440,
238,447,
245,457,
252,471,
263,485,
275,497,
288,511,
303,528,
320,548,
338,566,
359,583,
379,599,
398,618,
421,638,
443,657,
465,673,
486,688,
505,703,
525,720,
544,735,
560,746,
576,753,
588,761,
600,771,
611,778,
622,780,
629,780,
634,779,
637,780,
639,780,
639,776,
638,768,
635,761,
631,757,
625,752,
620,744,
612,734,
602,722,
591,714,
581,706,
570,696,
559,683,
546,672,
533,663,
522,656,
512,647,
501,636,
488,627,
476,620,
465,615,
455,609,
446,600,
435,592,
424,586,
414,583,
406,577,
399,568,
391,560,
381,554,
373,552,
366,548,
358,540,
351,535,
343,532,
337,531,
333,529,
330,526,
327,522,
324,520,
322,522,
322,524,
321,523,
321,522,
320,524,
319,529,
322,533,
324,536,
326,536,
329,537,
332,543,
335,547,
339,549,
341,549,
343,551,
345,555,
348,560,
352,561,
355,560,
356,560,
358,563,
361,566,
364,566,
366,564,
367,563,
366,563,
368,564,
369,563,
370,560,
370,556,
370,555,
369,554,
369,552,
369,546,
366,541,
364,537,
362,536,
361,532,
358,526,
354,519,
348,515,
343,513,
339,509,
334,503,
330,497,
324,493,
320,491,
316,488,
311,483,
306,478,
300,474,
296,473,
292,472,
289,466,
286,461,
283,458,
281,459,
279,457,
277,454,
274,449,
271,447,
268,448,
266,448,
265,445,
263,442,
261,441,
261,442,
261,444,
261,442,
260,439,
258,438,
258,440,
258,441,
258,440,
258,438,
257,437,
258,440,
258,441,
260,442,
261,439,
261,437,
261,440,
262,442,
263,442,
265,440,
265,439,
265,441,
267,444,
268,444,
270,442,
270,441,
270,442,
271,445,
272,446,
273,444,
273,442,
272,443,
272,446,
272,446,
272,444,
271,441,
269,441,
269,445,
270,445,
271,443,
271,441,
269,442,
269,444,
269,445,
270,442,
269,440,
268,439,
267,441,
267,442,
266,439,
266,437,
264,435,
264,437,
264,437,
265,435,
264,431,
263,430,
262,432,
261,432,
261,430,
260,426,
258,424,
257,425,
256,426,
255,423,
254,420,
250,417,
248,418,
246,419,
245,419,
243,415,
242,413,
241,414,
240,416,
240,416,
240,414,
239,414,
238,419,
239,425,
241,430,
244,434,
247,441,
251,450,
258,463,
267,475,
277,486,
287,499,
299,516,
314,535,
331,554,
348,570,
366,586,
384,605,
404,625,
424,644,
444,659,
462,672,
480,688,
497,704,
515,718,
532,729,
546,737,
559,745,
570,755,
580,762,
589,765,
596,765,
599,765,
602,766,
605,766,
606,761,
605,754,
601,747,
595,742,
591,736,
585,726,
577,714,
567,703,
558,695,
549,686,
539,676,
528,662,
515,650,
502,641,
491,634,
480,624,
469,613,
457,601,
445,595,
434,590,
425,581,
416,572,
405,562,
396,557,
387,553,
379,546,
370,538,
361,529,
352,525,
344,523,
338,519,
332,513,
325,508,
319,505,
314,505,
312,505,
310,502,
306,499,
303,499,
301,502,
300,505,
301,505,
301,504,
301,507,
301,513,
303,516,
305,518,
307,519,
309,522,
312,527,
317,533,
321,535,
325,535,
330,537,
334,543,
339,547,
344,548,
347,548,
349,548,
352,552,
355,555,
357,555,
359,553,
361,551,
362,553,
363,554,
364,552,
365,546,
365,543,
365,541,
367,540,
368,537,
367,532,
365,526,
363,525,
361,523,
359,518,
356,512,
352,505,
347,502,
343,500,
338,496,
334,490,
330,484,
324,481,
318,480,
314,477,
310,471,
304,465,
298,462,
294,461,
291,458,
289,454,
284,449,
279,447,
276,447,
273,445,
269,442,
266,438,
262,437,
259,439,
258,439,
257,437,
256,433,
254,432,
253,435,
254,436,
253,433,
253,430,
250,429,
250,432,
251,433,
252,432,
253,430,
252,430,
253,433,
254,435,
255,434,
256,432,
255,432,
255,434,
256,437,
258,437,
259,434,
259,433,
260,437,
260,440,
263,440,
263,438,
263,437,
264,439,
265,441,
266,441,
266,439,
266,439,
266,440,
267,442,
268,442,
269,440,
268,439,
266,439,
266,442,
267,442,
268,440,
268,437,
267,439,
267,441,
269,441,
270,440,
270,438,
269,436,
268,439,
268,439,
267,437,
265,433,
265,432,
263,434,
262,434,
262,431,
261,427,
258,425,
256,426,
256,426,
255,423,
254,419,
252,417,
250,417,
248,418,
247,414,
244,411,
242,410,
239,412,
240,413,
239,412,
240,411,
239,412,
239,418,
241,424,
243,428,
247,433,
251,440,
257,452,
265,466,
275,476,
285,488,
296,500,
308,517,
321,535,
337,552,
352,567,
368,582,
385,600,
402,618,
420,633,
437,644,
452,656,
467,669,
482,683,
495,693,
508,699,
518,703,
525,708,
533,714,
539,716,
544,715,
547,711,
547,707,
547,706,
545,702,
542,693,
536,684,
529,675,
522,668,
515,660,
508,647,
500,634,
489,622,
480,614,
470,604,
461,592,
450,579,
439,568,
429,561,
420,553,
410,542,
400,531,
388,521,
378,514,
368,509,
360,501,
352,492,
343,484,
334,481,
328,477,
322,471,
315,463,
308,458,
303,457,
299,457,
295,455,
290,451,
287,449,
282,450,
279,454,
276,455,
274,454,
273,456,
273,461,
273,467,
275,472,
276,474,
278,477,
279,484,
282,493,
287,498,
291,502,
295,506,
298,512,
303,520,
308,525,
313,528,
317,531,
321,534,
325,540,
330,543,
335,542,
339,542,
341,543,
344,546,
348,546,
351,543,
353,541,
353,540,
355,540,
356,539,
356,534,
355,529,
353,525,
352,523,
352,521,
351,515,
348,508,
345,503,
342,501,
339,497,
336,492,
333,485,
327,478,
323,476,
319,473,
315,468,
312,461,
307,456,
303,454,
301,453,
298,449,
295,442,
291,438,
287,438,
285,437,
282,434,
278,429,
275,425,
271,424,
269,426,
266,425,
263,421,
260,419,
257,420,
256,423,
255,423,
255,420,
254,419,
251,420,
251,425,
250,426,
250,426,
249,425,
247,426,
246,430,
245,431,
246,429,
245,427,
245,429,
244,433,
244,434,
245,433,
244,432,
242,432,
242,436,
242,437,
244,436,
243,435,
241,434,
241,437,
242,439,
242,438,
243,436,
243,436,
243,438,
245,439,
246,437,
246,435,
247,434,
247,435,
250,437,
253,435,
255,433,
255,432,
257,433,
258,435,
258,434,
259,431,
258,429,
257,431,
258,432,
260,431,
260,429,
258,425,
257,427,
257,428,
256,427,
255,424,
254,421,
253,421,
252,422,
251,423,
249,420,
247,417,
244,418,
241,421,
240,421,
239,420,
238,419,
237,422,
236,428,
238,433,
240,438,
243,444,
247,453,
253,466,
261,479,
271,490,
282,502,
294,516,
307,535,
323,552,
342,567,
358,581,
376,597,
393,616,
412,632,
431,646,
449,657,
466,669,
482,684,
499,696,
515,704,
528,710,
539,715,
549,722,
558,727,
565,728,
571,725,
574,721,
576,720,
576,718,
577,712,
574,703,
570,694,
564,687,
559,680,
552,671,
544,658,
535,646,
524,637,
515,628,
504,618,
493,605,
481,592,
468,584,
456,576,
445,567,
433,555,
421,544,
408,536,
398,531,
390,524,
380,513,
369,504,
359,497,
349,495,
341,491,
333,484,
324,477,
315,473,
308,472,
301,470,
295,466,
288,461,
283,460,
279,462,
276,464,
275,464,
273,463,
272,464,
271,470,
272,475,
274,478,
276,479,
277,483,
280,490,
284,497,
289,501,
295,503,
299,507,
304,514,
311,520,
318,524,
324,526,
329,529,
335,535,
341,540,
346,542,
352,541,
355,541,
358,544,
361,547,
364,546,
365,543,
365,540,
364,541,
364,542,
364,540,
362,535,
361,531,
357,529,
355,528,
352,524,
350,517,
347,511,
343,508,
341,506,
339,503,
335,496,
331,489,
327,485,
324,484,
322,480,
318,475,
315,468,
310,465,
307,464,
305,462,
302,457,
299,452,
295,449,
291,449,
289,448,
287,444,
283,440,
280,437,
276,439,
274,438,
273,436,
271,433,
267,432,
263,434,
261,436,
259,434,
258,432,
255,431,
251,432,
251,434,
251,433,
248,431,
246,429,
244,431,
244,434,
245,433,
246,432,
247,430,
248,433,
250,436,
252,436,
254,434,
254,434,
254,436,
254,439,
256,439,
257,437,
257,436,
259,439,
260,442,
261,442,
261,441,
262,440,
262,442,
263,444,
263,445,
264,444,
264,443,
262,444,
262,447,
262,448,
262,446,
261,443,
259,443,
259,446,
259,447,
259,444,
259,441,
259,440,
259,443,
260,443,
260,441,
261,438,
259,438,
258,440,
259,440,
259,438,
257,434,
256,433,
255,434,
255,435,
255,433,
254,430,
253,430,
252,432,
252,434,
252,434,
251,433,
251,433,
250,439,
253,445,
256,450,
260,454,
264,460,
269,471,
279,483,
288,495,
299,505,
311,517,
324,533,
340,550,
357,567,
375,580,
391,595,
408,612,
426,630,
444,645,
463,657,
479,669,
494,681,
510,696,
524,707,
537,714,
548,719,
557,725,
565,730,
572,734,
577,733,
580,731,
581,729,
581,728,
580,724,
578,717,
575,708,
570,700,
565,694,
558,687,
552,675,
543,664,
533,652,
523,644,
513,636,
505,625,
493,613,
482,602,
470,595,
459,588,
448,579,
438,568,
427,559,
416,553,
407,547,
397,539,
388,529,
378,521,
369,517,
360,512,
352,506,
344,499,
335,493,
326,490,
320,489,
312,485,
306,480,
301,477,
295,477,
292,479,
290,478,
288,475,
285,474,
283,476,
283,480,
284,483,
284,483,
285,485,
286,489,
287,495,
291,500,
294,501,
296,503,
298,508,
302,514,
306,519,
310,520,
314,521,
317,525,
321,531,
325,535,
329,535,
333,535,
337,537,
340,541,
345,542,
349,541,
353,538,
355,537,
356,538,
357,538,
358,535,
358,531,
357,526,
357,527,
356,525,
355,519,
353,513,
349,509,
346,508,
344,506,
343,502,
340,495,
336,490,
332,488,
328,486,
325,481,
323,474,
318,468,
313,467,
309,464,
306,460,
302,455,
297,450,
292,448,
288,446,
284,443,
280,437,
276,433,
272,432,
269,432,
266,429,
263,425,
261,421,
257,421,
255,423,
253,422,
252,419,
248,416,
246,417,
244,419,
245,420,
245,417,
244,415,
242,417,
241,420,
241,422,
241,420,
240,418,
240,419,
239,422,
239,423,
241,422,
241,421,
240,421,
240,424,
240,426,
240,426,
239,425,
238,425,
238,428,
239,429,
240,429,
240,426,
239,427,
240,429,
240,430,
241,430,
241,427,
239,426,
238,428,
239,431,
240,430,
239,428,
238,426,
237,427,
237,429,
237,428,
238,426,
237,425,
236,427,
236,428,
236,428,
236,425,
235,423,
234,423,
234,424,
234,425,
235,420,
235,418,
233,419,
233,422,
234,422,
235,420,
234,420,
234,422,
236,427,
237,430,
238,431,
241,434,
244,439,
249,449,
255,458,
262,466,
270,475,
278,486,
288,501,
301,516,
315,528,
330,540,
345,556,
361,573,
379,588,
396,601,
414,612,
430,625,
446,640,
463,653,
478,662,
492,669,
504,677,
515,685,
525,693,
535,695,
543,695,
548,694,
552,696,
555,697,
556,693,
555,686,
554,679,
549,674,
545,669,
541,660,
535,649,
527,638,
517,629,
508,621,
498,611,
488,598,
477,586,
465,577,
454,570,
444,560,
433,549,
423,539,
411,531,
399,525,
390,516,
379,505,
368,495,
356,489,
346,484,
337,478,
329,470,
319,463,
310,458,
301,456,
294,453,
286,448,
278,442,
270,441,
264,442,
260,443,
257,441,
254,439,
252,441,
250,445,
249,448,
250,450,
250,451,
251,454,
253,460,
255,466,
258,469,
262,472,
265,477,
269,485,
273,492,
279,496,
284,499,
288,502,
292,509,
298,515,
304,519,
309,519,
314,521,
318,525,
324,529,
328,531,
332,530,
334,528,
336,530,
339,532,
341,531,
343,526,
342,523,
342,521,
342,521,
342,518,
341,512,
340,508,
338,505,
336,504,
334,501,
332,494,
329,488,
324,485,
321,484,
318,480,
313,474,
312,468,
308,464,
304,464,
302,460,
299,455,
295,449,
291,446,
288,445,
285,444,
282,440,
279,436,
275,434,
272,435,
270,434,
268,432,
266,428,
262,427,
260,428,
259,430,
257,428,
256,425,
254,424,
251,428,
250,430,
249,430,
247,428,
245,427,
244,430,
243,432,
242,432,
240,430,
239,430,
238,431,
237,434,
237,434,
237,432,
236,431,
235,432,
235,435,
236,435,
236,432,
236,430,
235,432,
235,434,
236,433,
236,431,
235,428,
234,429,
234,431,
234,431,
232,429,
233,425,
231,426,
231,428,
231,428,
230,426,
229,423,
227,424,
227,426,
227,426,
228,424,
228,422,
228,423,
229,425,
230,427,
232,426,
233,426,
234,429,
236,434,
240,440,
244,443,
247,448,
251,454,
256,465,
265,475,
274,484,
283,492,
293,502,
303,515,
316,529,
329,540,
342,550,
354,561,
367,574,
380,587,
395,597,
407,604,
421,612,
434,622,
447,631,
458,636,
469,639,
478,641,
484,646,
490,650,
496,651,
498,649,
500,646,
500,644,
499,643,
497,638,
494,630,
490,623,
484,617,
479,612,
473,604,
466,594,
458,583,
448,575,
439,569,
431,560,
423,549,
414,538,
404,530,
396,524,
388,517,
379,506,
370,496,
359,488,
350,483,
340,478,
332,468,
323,459,
314,453,
306,450,
300,445,
293,439,
286,432,
277,429,
271,428,
266,428,
261,425,
257,422,
253,421,
249,425,
247,428,
246,429,
245,429,
243,431,
244,438,
245,445,
249,450,
252,453,
255,457,
258,465,
263,472,
269,477,
275,480,
280,485,
285,492,
290,500,
296,504,
301,506,
305,509,
309,514,
313,520,
318,523,
322,523,
324,523,
326,525,
328,529,
330,530,
331,528,
332,526,
332,526,
332,525,
334,524,
335,519,
335,514,
334,512,
334,511,
334,508,
332,503,
329,497,
326,493,
323,491,
321,488,
318,482,
314,476,
309,471,
303,470,
299,467,
295,463,
291,455,
286,452,
283,451,
280,448,
277,444,
273,439,
269,436,
265,437,
262,437,
259,434,
257,431,
254,429,
251,429,
250,430,
250,429,
248,426,
247,425,
245,427,
245,429,
245,429,
245,427,
245,427,
244,430,
245,432,
245,433,
245,431,
245,431,
245,433,
245,436,
246,436,
247,435,
246,434,
246,435,
246,439,
245,439,
246,438,
246,436,
244,437,
243,441,
243,441,
243,440,
241,438,
240,438,
239,440,
240,440,
239,438,
238,436,
237,436,
236,440,
237,440,
237,439,
238,438,
238,439,
240,445,
242,449,
244,452,
247,455,
251,461,
256,471,
262,481,
270,488,
279,496,
288,507,
299,521,
312,535,
326,548,
340,558,
354,570,
368,584,
384,598,
401,609,
417,618,
431,627,
446,639,
461,651,
476,659,
490,663,
501,668,
511,675,
521,681,
530,683,
536,682,
541,680,
543,680,
545,679,
547,675,
546,668,
542,661,
537,656,
534,651,
529,644,
523,633,
515,623,
506,614,
497,608,
488,599,
478,588,
468,577,
456,569,
445,564,
434,556,
423,546,
411,535,
399,526,
388,521,
379,514,
368,505,
358,496,
347,489,
337,485,
328,481,
319,474,
310,466,
300,461,
292,460,
285,458,
279,454,
272,450,
267,447,
261,450,
258,451,
256,451,
254,451,
252,452,
251,457,
253,462,
255,465,
257,467,
259,471,
262,478,
267,486,
272,491,
278,494,
283,498,
288,506,
294,513,
301,518,
308,521,
311,525,
317,531,
323,537,
330,542,
335,542,
339,543,
342,545,
347,549,
352,550,
356,547,
359,546,
360,546,
361,548,
362,547,
362,543,
363,538,
361,536,
361,535,
360,532,
358,527,
355,520,
351,516,
347,515,
344,512,
340,506,
335,499,
330,496,
325,494,
322,491,
319,487,
314,480,
309,476,
304,475,
301,473,
298,469,
295,462,
293,459,
289,458,
287,458,
285,455,
282,450,
279,447,
276,448,
274,448,
272,445,
270,442,
267,440,
263,440,
262,442,
261,440,
259,437,
256,435,
254,437,
254,439,
253,439,
252,436,
250,435,
248,436,
247,439,
246,439,
245,437,
243,436,
240,438,
240,441,
239,442,
238,440,
237,438,
235,439,
234,441,
234,442,
233,439,
232,438,
231,438,
231,441,
231,441,
232,440,
230,437,
229,437,
229,440,
229,442,
229,440,
230,438,
229,438,
229,442,
231,445,
233,446,
234,447,
236,451,
239,459,
245,469,
252,476,
260,485,
269,496,
281,512,
295,528,
310,544,
326,559,
344,576,
362,596,
382,618,
403,636,
425,652,
446,670,
465,690,
488,710,
509,726,
527,739,
545,752,
561,767,
576,781,
592,791,
606,797,
617,801,
627,807,
635,812,
642,813,
644,811,
644,807,
644,805,
644,803,
644,797,
644,789,
644,779,
637,771,
630,763,
622,754,
614,741,
602,728,
589,717,
577,709,
565,699,
553,687,
540,674,
525,665,
513,658,
501,650,
489,640,
476,629,
464,621,
453,616,
443,612,
433,604,
423,594,
413,587,
403,583,
394,578,
386,571,
378,563,
370,557,
362,555,
355,552,
350,547,
344,542,
338,539,
331,540,
328,541,
326,539,
324,537,
322,538,
320,541,
320,545,
320,547,
321,547,
322,549,
322,555,
325,559,
329,563,
333,565,
336,568,
339,572,
343,578,
348,582,
352,583,
355,585,
356,589,
361,595,
365,598,
369,598,
371,598,
373,600,
376,604,
380,606,
382,603,
383,600,
383,600,
385,601,
386,599,
388,595,
388,590,
387,586,
385,585,
384,582,
383,575,
379,568,
376,564,
373,561,
370,558,
367,552,
364,544,
359,540,
354,536,
351,534,
347,528,
344,520,
338,514,
333,511,
330,510,
326,505,
323,499,
318,495,
314,494,
311,494,
309,490,
305,485,
301,481,
297,481,
295,481,
294,478,
291,474,
289,471,
286,471,
284,472,
283,470,
281,466,
279,464,
277,464,
276,467,
276,467,
274,464,
272,463,
270,463,
269,465,
269,466,
268,464,
268,462,
266,463,
265,466,
266,467,
265,466,
265,463,
265,464,
266,467,
268,468,
268,466,
268,463,
268,463,
268,465,
269,465,
269,463,
270,461,
269,460,
269,463,
271,464,
271,462,
271,459,
271,457,
271,458,
272,459,
272,456,
272,454,
271,452,
271,453,
271,454,
271,452,
270,449,
268,448,
267,450,
267,453,
269,455,
271,456,
271,460,
274,468,
278,478,
284,488,
292,496,
300,509,
311,526,
324,546,
338,565,
354,583,
371,603,
387,627,
407,653,
428,677,
449,699,
470,722,
489,747,
509,774,
530,797,
551,817,
568,834,
584,855,
599,874,
615,889,
627,900,
636,909,
643,918,
644,928,
644,935,
644,936,
644,934,
644,934,
644,935,
644,933,
644,927,
644,919,
645,911,
644,907,
644,900,
644,890,
644,879,
639,869,
630,862,
623,855,
614,845,
604,832,
592,822,
581,816,
571,810,
563,803,
553,793,
543,784,
534,779,
526,774,
517,766,
509,756,
499,748,
490,743,
482,738,
475,730,
468,720,
460,712,
452,707,
445,702,
439,695,
432,685,
425,677,
417,671,
413,668,
407,663,
404,656,
399,650,
394,647,
393,647,
391,646,
388,642,
386,640,
385,640,
385,643,
386,645,
387,645,
387,644,
388,646,
389,650,
392,653,
394,653,
396,652,
397,653,
399,656,
402,657,
404,656,
405,655,
405,655,
406,657,
408,658,
410,656,
410,653,
409,651,
408,652,
408,651,
409,647,
407,642,
404,637,
402,636,
401,634,
399,630,
397,622,
393,616,
391,613,
389,609,
387,602,
385,594,
380,586,
376,581,
373,578,
371,572,
368,563,
363,555,
359,550,
355,547,
352,542,
349,533,
346,526,
342,522,
340,520,
338,516,
335,509,
331,503,
327,501,
324,501,
322,500,
320,494,
316,489,
312,487,
309,487,
308,485,
306,482,
303,479,
300,478,
298,480,
297,479,
295,476,
292,473,
290,471,
289,474,
288,475,
287,473,
286,470,
284,469,
283,472,
283,474,
284,471,
284,469,
284,467,
284,470,
285,471,
287,470,
288,467,
288,466,
287,467,
288,468,
288,466,
289,463,
289,460,
290,462,
291,463,
293,462,
293,459,
292,457,
292,458,
292,460,
293,458,
293,455,
292,453,
293,453,
294,455,
296,456,
296,452,
297,449,
297,449,
297,449,
298,449,
298,445,
297,442,
297,442,
296,443,
297,441,
296,439,
295,436,
294,435,
293,437,
294,436,
294,433,
293,430,
292,428,
291,430,
291,430,
291,427,
289,423,
287,422,
285,423,
284,423,
283,420,
281,418,
278,416,
276,417,
275,417,
274,415,
272,410,
270,409,
266,409,
266,408,
264,406,
263,401,
259,399,
257,399,
255,400,
254,397,
253,393,
250,391,
249,392,
248,394,
247,393,
246,392,
244,393,
243,397,
244,404,
247,410,
250,417,
254,427,
259,442,
267,461,
278,479,
291,497,
305,519,
320,546,
337,577,
357,608,
378,637,
399,666,
421,699,
445,734,
469,768,
493,797,
516,827,
538,857,
559,889,
580,917,
599,941,
617,962,
632,984,
643,991,
644,991,
644,991,
644,992,
644,991,
644,991,
644,991,
645,991,
645,991,
644,990,
644,991,
644,991,
644,991,
644,991,
644,992,
644,991,
644,991,
644,991,
645,991,
644,991,
644,991,
644,991,
644,991,
644,991,
644,991,
644,991,
644,984,
644,976,
634,966,
626,955,
615,950,
606,944,
597,936,
589,924,
578,912,
568,903,
558,896,
548,885,
537,871,
526,857,
515,846,
505,836,
496,824,
489,811,
480,797,
471,785,
463,777,
456,768,
449,756,
443,745,
436,737,
432,733,
427,729,
424,720,
420,713,
417,708,
414,708,
413,707,
413,703,
412,698,
410,695,
410,696,
411,696,
411,693,
411,689,
410,688,
409,690,
410,690,
411,689,
410,684,
410,681,
409,681,
409,681,
410,678,
409,672,
409,668,
407,667,
408,665,
407,662,
406,655,
404,650,
402,648,
402,645,
402,640,
401,633,
398,626,
396,621,
394,618,
393,611,
391,603,
388,594,
384,589,
381,584,
379,577,
376,567,
372,558,
367,551,
364,548,
361,542,
356,534,
352,525,
347,520,
344,517,
341,511,
338,503,
334,496,
330,491,
327,489,
324,485,
322,478,
319,471,
316,465,
313,464,
312,461,
311,456,
308,449,
305,446,
302,445,
301,444,
301,441,
299,436,
297,433,
295,432,
294,432,
293,428,
292,424,
290,421,
289,423,
289,424,
290,421,
291,417,
290,414,
289,415,
289,418,
289,417,
290,415,
290,413,
291,415,
293,417,
295,417,
295,415,
294,413,
294,415,
295,418,
295,417,
295,414,
295,412,
294,413,
295,415,
296,414,
297,411,
296,408,
294,408,
293,410,
292,409,
292,406,
289,402,
287,401,
286,401,
286,401,
285,397,
283,393,
281,390,
278,390,
277,389,
277,386,
275,382,
273,379,
271,380,
272,379,
273,375,
272,370,
272,367,
271,368,
272,367,
272,363,
273,359,
271,356,
270,357,
270,357,
270,354,
269,351,
269,349,
269,350,
269,351,
269,349,
268,345,
266,343,
265,344,
264,346,
264,344,
262,341,
260,339,
258,340,
257,342,
257,342,
256,338,
254,336,
252,336,
251,338,
249,337,
248,334,
246,331,
244,333,
243,335,
243,335,
242,332,
241,331,
239,331,
240,334,
240,335,
241,332,
241,331,
241,332,
241,335,
241,336,
242,334,
242,331,
242,331,
242,334,
242,335,
243,332,
242,329,
240,329,
239,331,
239,332,
238,330,
236,326,
234,325,
234,327,
233,329,
233,327,
233,324,
230,323,
230,326,
231,328,
232,328,
232,327,
231,330,
231,337,
231,345,
234,353,
236,361,
241,373,
247,390,
256,410,
266,430,
278,449,
291,474,
305,503,
322,534,
341,565,
360,595,
380,626,
400,663,
421,701,
445,736,
467,767,
488,798,
508,831,
529,865,
549,895,
567,919,
583,941,
598,965,
612,986,
626,991,
636,991,
643,991,
644,991,
644,990,
644,990,
645,992,
645,991,
644,991,
644,991,
644,990,
645,991,
645,991,
644,991,
644,991,
644,991,
637,991,
630,992,
620,983,
611,976,
603,969,
595,960,
584,948,
574,939,
564,934,
556,927,
548,920,
540,909,
531,900,
521,894,
514,888,
508,879,
502,867,
494,857,
487,850,
480,843,
475,832,
469,818,
463,804,
456,794,
452,786,
447,774,
442,759,
436,745,
430,735,
425,726,
421,715,
416,703,
412,693,
406,685,
404,680,
401,673,
398,665,
395,657,
392,654,
390,652,
391,650,
390,646,
390,642,
388,641,
387,645,
388,645,
388,644,
388,642,
387,641,
388,645,
389,647,
389,645,
388,643,
387,643,
386,644,
388,644,
389,640,
389,636,
387,633,
388,633,
387,631,
387,626,
386,619,
384,614,
382,612,
380,608,
378,600,
376,591,
373,582,
370,578,
368,573,
366,565,
362,555,
359,546,
355,541,
354,536,
351,527,
348,517,
345,508,
342,502,
339,498,
337,491,
335,483,
332,474,
329,470,
326,467,
324,462,
321,454,
318,446,
313,443,
311,441,
308,438,
306,431,
303,424,
300,421,
299,421,
296,418,
295,412,
292,407,
289,405,
287,404,
287,403,
286,399,
286,394,
284,392,
283,394,
282,395,
282,391,
281,388,
279,387,
278,388,
278,388,
278,385,
278,382,
277,382,
276,384,
277,386,
277,384,
277,381,
276,381,
275,382,
275,384,
276,383,
277,380,
276,378,
276,381,
278,383,
279,382,
280,379,
279,377,
280,380,
281,382,
281,382,
282,380,
283,378,
283,380,
284,383,
286,382,
287,379,
286,377,
285,378,
285,381,
286,381,
286,377,
286,375,
285,376,
285,378,
286,378,
286,374,
286,370,
283,370,
283,371,
284,370,
283,367,
281,362,
279,361,
278,362,
278,361,
277,358,
275,355,
274,354,
272,356,
272,357,
272,353,
271,350,
269,348,
268,350,
268,350,
268,347,
267,344,
264,343,
263,344,
262,345,
261,343,
260,338,
258,337,
256,338,
255,339,
255,337,
254,333,
253,331,
251,331,
251,332,
251,330,
250,326,
248,323,
246,324,
245,325,
245,323,
245,319,
242,316,
241,317,
239,318,
238,316,
237,313,
234,311,
232,311,
231,313,
231,313,
231,311,
230,310,
229,313,
229,319,
231,324,
232,328,
234,335,
237,347,
243,363,
250,378,
258,392,
265,409,
274,431,
286,457,
299,482,
315,507,
328,533,
342,562,
359,595,
377,627,
395,655,
413,682,
429,709,
446,739,
463,765,
478,787,
493,807,
505,826,
517,848,
529,865,
539,879,
547,887,
553,894,
559,902,
563,907,
567,907,
568,903,
567,899,
566,896,
563,891,
559,882,
555,869,
549,856,
542,846,
536,836,
530,821,
522,804,
512,789,
502,778,
493,766,
485,752,
476,736,
467,720,
456,708,
447,698,
440,686,
432,671,
424,657,
416,647,
410,639,
404,628,
397,614,
390,601,
383,590,
375,583,
370,573,
363,562,
357,550,
350,541,
344,537,
341,531,
337,523,
333,515,
329,511,
327,511,
324,511,
324,508,
322,505,
320,505,
320,508,
322,512,
324,513,
324,513,
324,515,
326,522,
328,527,
331,530,
333,531,
335,534,
338,540,
341,545,
344,547,
345,547,
346,547,
347,550,
348,555,
349,554,
349,552,
348,549,
347,550,
347,552,
347,549,
347,544,
346,540,
345,538,
343,537,
342,532,
340,525,
336,517,
334,512,
332,509,
330,504,
327,496,
324,488,
321,482,
319,479,
317,472,
314,463,
309,455,
307,449,
305,446,
303,440,
302,432,
298,424,
295,420,
292,417,
289,413,
287,407,
283,400,
280,394,
277,393,
275,390,
273,384,
270,378,
267,375,
266,374,
265,373,
264,368,
263,363,
261,360,
261,360,
260,360,
261,357,
261,353,
260,351,
260,352,
261,353,
262,351,
262,347,
260,346,
258,347,
258,349,
260,348,
258,347,
257,346,
255,349,
256,352,
255,352,
256,351,
256,350,
256,352,
257,355,
258,355,
258,353,
257,352,
257,353,
257,356,
257,356,
256,354,
255,352,
254,352,
254,354,
255,355,
255,352,
255,350,
254,350,
255,353,
257,353,
258,351,
259,349,
259,349,
260,352,
261,353,
261,350,
261,347,
260,347,
260,349,
261,350,
261,348,
260,346,
260,344,
259,347,
260,348,
259,345,
260,342,
258,341,
258,343,
257,343,
257,341,
256,338,
253,336,
250,338,
250,340,
249,339,
248,337,
245,336,
243,338,
242,341,
242,340,
241,337,
239,336,
237,337,
237,339,
238,337,
236,333,
234,331,
232,333,
232,334,
231,333,
232,330,
231,328,
230,330,
230,332,
230,332,
230,329,
228,326,
227,327,
226,330,
226,329,
226,327,
225,325,
224,325,
223,328,
224,329,
224,327,
224,325,
223,326,
223,330,
224,330,
224,328,
224,325,
223,325,
223,328,
224,328,
223,326,
222,324,
221,323,
220,326,
220,328,
220,326,
219,324,
218,323,
217,326,
217,328,
217,327,
217,325,
216,325,
216,329,
217,333,
218,335,
219,338,
221,344,
224,354,
229,365,
235,377,
241,388,
249,402,
257,422,
267,444,
280,465,
294,485,
308,508,
324,536,
342,564,
359,591,
377,615,
395,641,
412,669,
430,697,
449,722,
466,742,
483,762,
499,784,
514,805,
528,823,
541,836,
551,848,
559,859,
568,870,
576,877,
581,880,
585,880,
586,879,
587,880,
588,878,
587,871,
584,861,
579,852,
575,845,
570,838,
563,825,
554,811,
544,800,
534,791,
524,781,
515,768,
504,754,
494,742,
484,734,
475,726,
466,716,
457,705,
448,696,
440,689,
432,683,
426,674,
419,665,
411,656,
405,650,
399,646,
393,637,
387,627,
381,617,
376,611,
371,605,
366,597,
362,586,
357,577,
351,572,
348,568,
345,561,
341,553,
337,546,
332,542,
329,541,
329,538,
327,534,
325,530,
324,530,
325,532,
325,533,
325,531,
325,529,
325,531,
325,535,
328,537,
330,536,
331,536,
331,539,
333,543,
335,547,
337,546,
338,545,
338,545,
340,549,
342,551,
343,549,
342,546,
342,545,
341,547,
341,547,
342,543,
341,539,
338,537,
337,536,
336,534,
335,529,
333,523,
331,519,
329,517,
327,515,
326,511,
324,504,
321,498,
318,495,
316,493,
313,487,
310,479,
306,472,
303,468,
300,464,
298,459,
296,451,
292,444,
288,440,
286,438,
285,433,
282,426,
279,421,
277,419,
275,418,
274,414,
273,409,
271,403,
268,401,
266,401,
265,399,
264,394,
262,390,
260,389,
259,391,
259,390,
259,388,
257,384,
256,384,
256,386,
255,387,
257,385,
256,382,
256,381,
256,384,
258,385,
259,384,
257,381,
257,380,
256,383,
257,385,
258,383,
257,381,
256,381,
256,384,
257,386,
258,385,
258,383,
258,382,
258,385,
259,387,
260,385,
260,383,
261,381,
262,383,
264,385,
265,385,
266,382,
265,380,
265,382,
267,384,
268,383,
268,379,
267,377,
267,378,
268,381,
268,380,
268,377,
267,374,
265,375,
265,376,
265,376,
265,372,
264,371,
262,371,
263,373,
263,373,
262,370,
261,368,
258,367,
258,370,
258,369,
257,367,
255,364,
253,364,
251,366,
251,367,
249,364,
248,360,
246,359,
244,362,
243,363,
244,361,
242,358,
240,357,
239,359,
240,361,
240,359,
240,355,
237,354,
236,357,
236,357,
236,356,
236,353,
235,351,
234,354,
234,356,
235,355,
235,352,
234,352,
234,354,
234,357,
235,356,
235,353,
234,352,
234,354,
234,357,
234,357,
235,355,
233,354,
232,356,
233,358,
234,358,
233,354,
233,353,
231,354,
231,357,
232,358,
232,356,
231,354,
230,355,
230,358,
230,358,
231,356,
229,355,
229,355,
229,357,
231,357,
231,354,
230,351,
228,352,
227,353,
226,353,
226,351,
225,348,
224,348,
223,350,
223,351,
222,348,
221,346,
218,346,
218,349,
218,351,
217,351,
216,350,
215,352,
217,360,
220,368,
223,373,
227,379,
232,390,
238,405,
247,420,
258,435,
269,450,
281,467,
295,489,
311,512,
328,533,
345,553,
363,575,
379,600,
397,626,
415,649,
433,667,
450,686,
465,706,
481,726,
496,742,
510,753,
522,764,
531,776,
540,787,
548,795,
555,797,
559,798,
561,799,
563,801,
564,799,
563,793,
561,785,
556,778,
551,772,
546,765,
541,753,
533,739,
524,729,
515,721,
507,710,
499,697,
489,683,
479,671,
469,662,
460,653,
450,640,
440,628,
429,619,
418,613,
409,607,
400,599,
392,588,
383,580,
374,576,
368,572,
362,563,
355,555,
348,548,
342,544,
336,541,
331,534,
326,527,
320,520,
316,517,
312,516,
309,512,
306,507,
302,505,
300,506,
297,508,
297,508,
297,505,
297,505,
297,508,
298,513,
301,515,
303,515,
304,516,
306,520,
308,527,
311,530,
315,531,
317,533,
320,537,
323,543,
327,545,
331,544,
335,543,
336,545,
339,548,
341,551,
343,549,
344,547,
344,545,
345,547,
345,547,
346,543,
346,539,
344,537,
344,537,
345,534,
344,529,
343,523,
341,518,
339,516,
338,514,
336,508,
334,501,
331,496,
328,494,
326,491,
323,485,
320,478,
316,473,
312,470,
310,467,
306,461,
302,453,
298,447,
294,445,
291,444,
288,440,
285,434,
282,429,
278,428,
276,427,
274,425,
271,421,
269,417,
266,416,
265,417,
264,415,
264,412,
262,409,
260,409,
260,411,
260,411,
260,408,
259,406,
257,407,
257,410,
258,411,
258,409,
258,408,
259,408,
260,411,
261,412,
262,410,
262,408,
261,408,
261,411,
262,413,
263,411,
262,408,
261,409,
260,413,
262,415,
262,413,
261,410,
260,410,
260,413,
260,415,
261,414,
262,413,
261,413,
261,415,
261,417,
262,415,
264,413,
264,412,
264,414,
267,416,
269,415,
271,412,
270,410,
271,412,
272,414,
273,412,
273,410,
272,409,
271,409,
271,411,
273,410,
272,407,
270,405,
269,406,
269,408,
269,407,
268,405,
266,402,
264,403,
263,405,
262,405,
262,402,
261,400,
259,400,
259,402,
258,401,
259,398,
258,395,
256,394,
254,396,
254,396,
253,393,
253,389,
253,389,
252,392,
252,392,
251,390,
251,387,
249,387,
247,389,
247,390,
247,388,
247,385,
245,384,
243,387,
243,388,
244,386,
243,384,
241,382,
241,384,
242,386,
242,384,
242,382,
242,382,
240,384,
241,385,
241,384,
241,381,
240,380,
239,382,
239,384,
240,383,
240,381,
239,379,
240,382,
240,385,
241,384,
241,382,
240,380,
240,380,
239,382,
241,382,
240,378,
240,376,
238,376,
237,377,
236,377,
234,374,
233,372,
231,373,
230,376,
230,376,
230,375,
229,374,
227,376,
228,380,
229,384,
231,383,
233,385,
234,392,
237,402,
242,412,
247,420,
254,428,
262,440,
270,457,
283,474,
295,489,
308,505,
322,523,
337,545,
354,567,
372,585,
388,602,
405,621,
422,642,
438,661,
454,677,
470,689,
483,703,
495,717,
507,730,
518,738,
527,744,
534,749,
540,755,
545,760,
550,761,
553,757,
553,754,
553,753,
551,751,
550,744,
547,735,
542,725,
536,717,
529,710,
524,700,
517,687,
508,674,
497,664,
486,655,
477,644,
466,631,
455,619,
443,610,
433,602,
423,593,
413,581,
401,570,
390,561,
381,556,
372,549,
364,540,
355,530,
346,523,
338,518,
331,513,
325,505,
318,497,
310,491,
304,489,
299,486,
295,480,
291,474,
288,470,
285,470,
283,470,
281,468,
280,465,
278,465,
278,469,
278,473,
279,474,
281,475,
283,477,
284,483,
288,489,
292,493,
295,496,
296,499,
299,506,
303,512,
307,516,
311,518,
314,520,
316,526,
319,531,
323,534,
327,534,
328,535,
330,537,
332,541,
333,541,
334,539,
333,536,
333,536,
334,536,
335,534,
336,529,
336,524,
335,519,
336,519,
334,515,
333,509,
332,502,
330,499,
329,497,
328,494,
327,487,
324,481,
321,476,
318,474,
316,470,
313,464,
309,457,
304,452,
300,451,
297,448,
294,443,
290,436,
287,431,
283,430,
282,429,
280,425,
277,420,
274,417,
271,417,
270,417,
268,414,
266,410,
262,408,
260,409,
258,410,
258,409,
258,406,
255,405,
254,407,
255,410,
255,409,
255,407,
255,405,
254,407,
254,410,
253,410,
254,408,
253,406,
252,409,
251,411,
251,412,
250,411,
248,410,
246,412,
245,416,
246,417,
247,415,
246,414,
247,415,
248,419,
249,419,
249,418,
249,417,
249,418,
251,422,
252,423,
253,422,
253,418,
252,419,
253,421,
254,424,
256,422,
256,420,
256,420,
257,424,
259,424,
259,423,
259,419,
258,418,
258,421,
260,422,
261,421,
261,418,
260,416,
259,417,
260,418,
260,417,
261,413,
259,411,
259,412,
260,414,
260,412,
260,409,
259,407,
258,409,
258,410,
258,410,
258,406,
257,405,
255,406,
255,409,
255,408,
255,406,
254,404,
253,405,
252,407,
252,407,
251,404,
249,402,
247,402,
247,403,
246,404,
246,401,
245,398,
243,399,
242,401,
242,401,
242,398,
241,396,
240,397,
240,399,
238,401,
238,399,
237,396,
235,396,
235,398,
236,399,
237,397,
236,394,
235,393,
234,396,
235,397,
236,395,
235,392,
233,392,
233,394,
233,396,
234,395,
234,391,
233,391,
231,393,
231,394,
231,392,
230,389,
228,388,
227,390,
227,391,
227,390,
227,387,
226,386,
226,388,
226,391,
228,392,
229,392,
229,394,
229,401,
232,408,
236,414,
241,419,
246,427,
253,439,
261,454,
272,468,
283,482,
296,496,
309,516,
325,536,
342,557,
360,574,
378,591,
396,611,
415,633,
434,651,
453,668,
471,682,
488,698,
505,715,
521,731,
537,740,
551,749,
561,757,
571,767,
581,773,
589,775,
594,773,
597,773,
598,773,
599,772,
599,765,
597,757,
592,749,
586,743,
580,736,
573,726,
565,713,
555,701,
545,693,
534,684,
525,671,
514,658,
502,645,
489,637,
477,629,
467,619,
455,606,
442,595,
430,589,
420,583,
409,575,
399,565,
389,556,
379,550,
370,546,
364,539,
356,531,
349,523,
340,518,
333,515,
328,510,
323,504,
317,498,
311,496,
307,496,
304,495,
302,491,
298,487,
294,488,
292,491,
292,493,
292,493,
292,493,
292,496,
293,501,
295,506,
296,507,
298,508,
300,511,
303,519,
307,524,
311,528,
315,529,
318,533,
322,540,
326,545,
331,547,
334,547,
337,548,
339,552,
343,555,
346,556,
349,554,
351,554,
351,555,
354,558,
354,555,
354,551,
353,548,
353,547,
351,546,
351,543,
349,536,
346,531,
343,528,
340,526,
339,521,
337,514,
334,507,
330,504,
327,501,
325,495,
321,488,
317,481,
314,477,
311,475,
308,471,
304,463,
300,457,
296,454,
292,453,
291,450,
288,446,
284,441,
280,439,
277,439,
275,439,
273,434,
271,429,
268,428,
266,429,
266,429,
265,426,
263,424,
261,423,
260,426,
259,426,
258,425,
256,423,
254,422,
252,425,
252,427,
252,426,
252,424,
251,424,
250,426,
251,429,
251,429,
252,427,
252,426,
251,429,
252,432,
254,432,
254,429,
255,428,
255,431,
257,435,
259,434,
261,433,
261,431,
261,433,
262,437,
264,438,
265,436,
265,435,
266,436,
267,439,
269,439,
269,436,
268,434,
268,436,
268,438,
268,438,
269,436,
268,433,
267,434,
266,437,
267,438,
267,436,
268,433,
267,433,
268,436,
269,437,
269,435,
269,432,
269,433,
269,435,
270,436,
269,434,
269,431,
267,431,
265,433,
264,434,
263,432,
261,430,
259,428,
258,430,
258,431,
257,428,
256,425,
255,425,
254,427,
254,428,
255,426,
254,423,
253,421,
251,423,
250,425,
251,424,
251,420,
252,419,
251,421,
252,424,
253,423,
253,420,
252,418,
251,419,
252,421,
252,420,
252,417,
252,416,
251,417,
250,420,
251,420,
251,417,
249,414,
247,415,
247,418,
247,418,
246,414,
244,412,
242,412,
240,413,
240,413,
239,410,
237,407,
236,406,
234,408,
233,408,
231,405,
229,401,
227,400,
226,402,
225,403,
224,400,
222,398,
219,398,
218,401,
218,404,
217,404,
218,405,
218,409,
220,416,
225,424,
230,432,
238,440,
244,451,
253,466,
264,482,
278,497,
294,511,
311,527,
328,548,
347,568,
367,586,
387,602,
408,618,
428,638,
449,657,
470,674,
490,687,
507,700,
524,714,
540,728,
554,737,
568,744,
577,750,
584,756,
591,763,
596,765,
599,762,
601,758,
600,756,
598,754,
596,749,
592,740,
586,730,
579,721,
571,713,
563,704,
555,691,
545,677,
533,665,
522,656,
510,645,
499,631,
487,617,
474,606,
461,597,
449,589,
436,577,
424,566,
411,557,
399,550,
388,543,
378,534,
367,524,
356,516,
346,510,
338,506,
330,500,
322,492,
313,486,
306,485,
301,483,
295,479,
290,475,
284,472,
280,474,
278,475,
277,475,
276,472,
275,472,
275,475,
276,480,
278,482,
280,483,
282,484,
284,489,
287,496,
292,501,
296,503,
300,506,
303,512,
308,519,
314,524,
318,527,
321,530,
324,534,
327,540,
331,545,
335,545,
338,545,
341,548,
343,551,
347,554,
351,551,
353,549,
354,549,
356,551,
357,551,
358,547,
358,543,
356,539,
355,539,
353,537,
352,532,
351,525,
348,519,
345,517,
341,514,
340,507,
336,499,
333,494,
329,491,
327,489,
325,483,
320,476,
316,471,
311,469,
308,468,
305,463,
301,457,
297,451,
292,451,
291,450,
288,447,
285,442,
281,438,
277,438,
274,439,
272,436,
269,432,
265,429,
262,429,
259,430,
257,429,
255,426,
251,424,
248,425,
247,427,
246,428,
245,425,
242,423,
241,424,
240,427,
240,429,
240,426,
239,425,
238,426,
238,429,
239,430,
239,428,
239,426,
239,426,
239,428,
240,429,
241,428,
242,426,
241,426,
241,429,
243,432,
243,431,
244,430,
244,431,
246,435,
248,436,
250,437,
252,435,
252,434,
253,437,
254,438,
256,438,
256,436,
256,436,
256,439,
258,441,
258,441,
260,438,
259,436,
260,438,
261,441,
263,440,
264,437,
264,435,
264,436,
265,438,
267,437,
267,434,
266,432,
264,433,
264,435,
265,435,
265,432,
264,430,
262,431,
262,433,
262,432,
262,430,
261,427,
259,428,
258,430,
258,430,
258,428,
257,425,
254,425,
253,427,
251,428,
250,425,
249,423,
246,422,
244,424,
244,424,
244,422,
243,419,
239,418,
237,420,
236,420,
235,419,
234,417,
231,416,
229,418,
229,419,
229,417,
229,414,
227,412,
226,413,
225,413,
226,411,
226,408,
225,407,
224,408,
224,409,
223,407,
222,405,
220,403,
218,406,
219,408,
218,409,
217,407,
217,409,
216,413,
217,420,
220,425,
223,431,
226,438,
232,449,
240,464,
250,478,
262,491,
274,505,
289,524,
307,545,
327,565,
349,583,
371,602,
394,623,
417,645,
441,666,
465,683,
487,699,
508,717,
529,735,
549,751,
567,762,
584,771,
598,780,
612,791,
625,799,
636,802,
642,802,
644,803,
644,805,
644,804,
644,799,
644,791,
644,784,
644,780,
644,773,
644,763,
635,751,
625,740,
615,732,
604,723,
594,711,
581,697,
568,684,
554,675,
541,666,
528,655,
514,641,
500,630,
486,622,
474,616,
462,607,
449,596,
437,588,
423,583,
412,578,
403,571,
393,562,
383,555,
373,550,
365,547,
357,542,
350,535,
342,528,
336,524,
329,524,
324,522,
318,519,
314,515,
310,515,
307,517,
306,519,
305,518,
304,517,
305,518,
306,524,
307,528,
309,529,
311,530,
313,534,
316,540,
320,545,
324,547,
328,548,
331,551,
336,557,
340,562,
345,564,
350,564,
353,565,
356,570,
360,573,
363,573,
366,571,
367,571,
368,572,
370,574,
373,573,
374,570,
374,567,
373,567,
375,566,
376,562,
375,555,
374,551,
372,549,
370,548,
369,543,
367,535,
364,529,
360,525,
357,522,
355,518,
352,510,
348,504,
341,501,
338,498,
333,494,
330,488,
325,482,
319,479,
315,478,
311,475,
307,469,
302,463,
298,460,
292,460,
289,457,
284,452,
280,447,
275,445,
273,446,
270,445,
268,442,
267,439,
264,437,
262,439,
260,440,
260,438,
258,434,
255,435,
253,437,
254,438,
253,437,
252,434,
250,434,
249,437,
249,440,
250,439,
250,437,
251,436,
252,439,
253,441,
256,441,
256,439,
257,439,
259,440,
261,443,
263,444,
264,442,
263,440,
264,442,
264,445,
266,445,
267,443,
267,442,
268,444,
270,447,
271,447,
272,445,
272,443,
273,444,
273,448,
274,448,
275,446,
275,444,
274,444,
274,448,
275,448,
276,446,
275,444,
275,444,
275,446,
275,448,
274,446,
274,442,
271,442,
270,444,
270,444,
270,442,
268,439,
266,439,
264,441,
264,443,
263,440,
262,437,
260,436,
258,438,
258,439,
259,437,
259,434,
257,433,
255,433,
255,435,
255,433,
255,430,
253,429,
251,430,
249,431,
248,431,
247,427,
244,425,
243,426,
241,427,
240,426,
240,422,
238,420,
236,420,
235,421,
235,420,
233,417,
231,414,
229,414,
228,416,
228,415,
228,412,
228,410,
227,410,
228,413,
229,412,
230,411,
230,410,
230,412,
231,418,
232,424,
235,426,
238,432,
242,441,
249,454,
257,467,
265,478,
276,489,
288,506,
302,526,
318,547,
335,564,
354,582,
373,602,
393,624,
414,646,
436,665,
458,681,
479,698,
498,718,
519,737,
539,751,
557,763,
571,773,
584,786,
598,796,
609,802,
618,803,
625,806,
631,809,
635,810,
639,808,
640,801,
640,793,
637,787,
635,782,
631,773,
625,761,
618,748,
609,739,
600,730,
590,718,
580,703,
568,689,
555,677,
542,667,
529,655,
517,641,
504,627,
490,618,
476,611,
465,602,
453,591,
440,581,
428,573,
417,568,
407,561,
395,552,
385,543,
375,537,
365,535,
356,530,
349,524,
340,516,
332,512,
326,512,
322,511,
317,509,
313,506,
309,506,
305,510,
305,513,
305,514,
306,515,
306,517,
307,523,
310,529,
314,534,
317,536,
320,540,
324,546,
330,553,
335,557,
339,560,
345,563,
350,569,
356,575,
361,579,
366,579,
370,581,
373,585,
377,589,
381,591,
383,589,
386,588,
387,590,
387,593,
390,592,
392,588,
393,584,
392,582,
392,582,
392,579,
392,573,
390,566,
387,561,
385,560,
383,557,
380,551,
376,543,
371,538,
368,535,
364,529,
360,522,
355,513,
350,507,
345,506,
340,502,
336,496,
331,489,
326,485,
322,483,
319,480,
315,475,
312,469,
307,464,
304,463,
302,462,
299,458,
297,453,
293,450,
290,450,
288,450,
286,448,
283,443,
281,442,
277,443,
274,444,
273,443,
271,440,
268,438,
266,441,
265,444,
264,444,
264,442,
262,441,
260,443,
259,447,
258,447,
257,446,
256,445,
255,446,
255,449,
255,449,
255,447,
255,447,
255,448,
255,451,
256,453,
257,451,
257,449,
258,449,
259,453,
262,455,
264,454,
265,452,
266,453,
268,456,
270,459,
273,457,
275,456,
278,455,
279,459,
282,460,
284,458,
285,456,
286,456,
287,458,
288,460,
289,459,
290,457,
290,456,
288,458,
289,460,
289,459,
289,456,
287,455,
286,458,
287,460,
286,459,
285,455,
282,453,
281,455,
281,456,
281,455,
280,450,
278,448,
277,448,
277,449,
277,448,
277,444,
276,442,
274,441,
274,442,
274,441,
272,438,
271,434,
268,434,
267,435,
266,433,
266,430,
263,427,
261,427,
260,429,
260,429,
258,426,
258,426,
256,428,
256,433,
257,438,
258,440,
260,446,
262,454,
267,467,
273,480,
281,492,
290,505,
301,521,
314,542,
328,563,
344,581,
361,599,
378,620,
397,643,
416,665,
437,684,
457,701,
477,718,
495,738,
514,756,
532,770,
549,781,
563,792,
578,805,
591,815,
604,821,
614,823,
622,824,
628,826,
633,826,
637,823,
638,816,
637,808,
634,803,
631,797,
628,787,
623,775,
616,762,
607,752,
599,743,
590,731,
579,716,
568,702,
555,689,
543,680,
532,669,
520,656,
505,643,
492,634,
480,627,
468,618,
457,606,
444,595,
431,587,
420,581,
408,574,
398,564,
388,555,
378,548,
369,545,
361,540,
353,533,
346,525,
338,521,
331,520,
326,518,
322,516,
318,512,
315,511,
313,514,
311,519,
311,519,
313,518,
313,520,
313,526,
316,531,
320,535,
322,538,
325,541,
329,549,
334,556,
339,560,
343,562,
347,565,
351,571,
357,577,
361,581,
365,583,
368,585,
372,589,
377,594,
381,596,
386,594,
389,594,
391,596,
393,598,
395,596,
396,591,
396,587,
395,584,
394,584,
395,580,
395,573,
394,566,
391,561,
389,559,
388,554,
384,547,
381,540,
377,534,
373,530,
371,525,
369,517,
365,509,
361,503,
357,500,
354,497,
351,490,
346,483,
340,478,
335,476,
331,474,
328,468,
323,462,
318,458,
313,457,
308,455,
304,452,
300,446,
295,442,
290,443,
286,443,
284,440,
280,436,
276,434,
273,435,
272,437,
271,436,
270,433,
269,432,
267,434,
266,437,
266,436,
265,434,
263,433,
262,435,
263,439,
263,439,
262,438,
262,436,
260,438,
262,441,
261,442,
262,440,
261,438,
261,440,
261,444,
263,445,
264,444,
264,441,
263,442,
265,445,
266,447,
267,446,
268,444,
268,444,
269,447,
271,448,
273,447,
273,445,
274,444,
274,448,
277,449,
278,447,
278,445,
277,444,
276,447,
276,448,
276,447,
277,444,
275,443,
274,445,
274,446,
275,444,
275,441,
273,439,
272,440,
272,441,
272,439,
271,435,
271,434,
270,435,
271,436,
271,435,
271,432,
269,429,
268,429,
269,430,
269,428,
268,423,
266,420,
266,420,
265,421,
264,420,
263,417,
261,414,
258,414,
256,416,
255,416,
255,414,
254,414,
253,417,
254,424,
255,432,
258,438,
261,446,
265,457,
271,473,
279,489,
289,504,
300,519,
313,539,
328,563,
345,586,
363,606,
381,626,
400,649,
419,675,
441,698,
463,719,
484,737,
503,756,
523,777,
542,796,
559,810,
575,820,
590,831,
603,842,
617,850,
627,855,
636,855,
641,856,
644,857,
644,857,
644,853,
644,845,
644,836,
644,830,
642,823,
637,814,
631,800,
622,787,
613,776,
603,766,
593,754,
583,739,
572,724,
560,714,
549,705,
539,694,
528,682,
516,669,
504,661,
493,656,
483,647,
473,637,
463,628,
451,621,
442,616,
434,610,
428,601,
419,592,
411,586,
403,583,
397,578,
390,571,
384,564,
377,561,
372,561,
369,561,
366,559,
363,556,
360,556,
358,559,
357,564,
358,565,
358,565,
359,567,
360,574,
363,579,
366,583,
369,585,
370,588,
373,596,
377,602,
380,606,
384,607,
387,611,
390,617,
395,623,
401,626,
404,626,
407,626,
409,629,
412,633,
416,633,
419,631,
420,628,
421,628,
423,628,
425,626,
425,621,
425,615,
424,612,
423,610,
422,606,
420,598,
417,591,
413,586,
410,583,
406,577,
402,568,
398,559,
392,552,
387,548,
382,542,
378,533,
372,525,
365,519,
359,515,
355,510,
350,502,
344,494,
339,488,
334,486,
331,483,
328,477,
324,470,
320,465,
316,464,
314,463,
311,458,
308,452,
304,449,
300,449,
299,449,
297,447,
295,443,
292,441,
290,442,
289,443,
287,443,
286,441,
284,439,
282,441,
282,444,
280,444,
279,441,
276,439,
275,441,
274,445,
272,445,
271,443,
270,442,
268,444,
267,447,
266,448,
265,446,
265,445,
264,446,
264,449,
264,450,
265,448,
266,446,
267,448,
269,452,
271,453,
273,452,
274,450,
276,451,
278,455,
281,456,
282,454,
284,452,
285,452,
288,455,
290,457,
291,455,
294,452,
294,451,
295,453,
297,454,
298,452,
298,449,
299,448,
298,450,
300,450,
300,448,
300,445,
298,443,
298,444,
298,445,
298,443,
296,439,
294,437,
292,438,
290,438,
289,436,
287,430,
283,427,
279,426,
279,427,
277,423,
275,417,
272,413,
270,411,
268,411,
267,408,
265,403,
262,399,
259,399,
256,399,
255,398,
253,394,
250,392,
247,393,
246,396,
244,398,
244,399,
244,402,
245,409,
247,420,
252,431,
257,440,
263,452,
272,469,
282,489,
295,510,
309,529,
324,550,
342,575,
360,603,
380,629,
400,653,
421,676,
441,701,
463,728,
483,753,
503,774,
522,793,
539,811,
555,831,
571,849,
584,860,
596,868,
606,874,
613,881,
621,886,
626,886,
631,882,
632,876,
632,872,
630,867,
628,857,
624,843,
618,830,
610,818,
603,808,
596,793,
587,775,
577,757,
567,743,
556,730,
546,715,
535,698,
523,682,
510,669,
499,659,
489,647,
479,632,
468,619,
456,609,
446,601,
436,592,
427,581,
417,570,
406,562,
398,557,
389,550,
382,541,
373,532,
366,527,
358,525,
352,522,
346,516,
340,512,
334,511,
329,513,
327,514,
325,513,
323,513,
322,516,
321,522,
322,527,
324,530,
326,532,
328,536,
331,542,
335,548,
339,552,
344,554,
347,557,
350,563,
355,570,
359,573,
363,575,
366,577,
368,582,
371,586,
375,588,
377,587,
379,586,
381,588,
383,589,
386,588,
387,583,
387,579,
386,577,
385,576,
386,572,
385,565,
383,558,
381,553,
380,550,
378,546,
376,537,
372,529,
368,523,
365,519,
363,513,
359,505,
354,497,
348,491,
343,489,
338,484,
334,476,
329,469,
324,464,
320,462,
317,458,
314,450,
310,443,
305,437,
301,436,
298,433,
295,427,
292,422,
287,419,
284,418,
282,417,
279,414,
277,410,
273,408,
270,409,
270,410,
269,409,
268,405,
266,403,
265,406,
265,408,
265,407,
263,405,
260,404,
259,406,
259,409,
259,409,
259,407,
259,407,
258,410,
258,413,
259,413,
259,412,
258,411,
258,413,
258,416,
260,417,
260,415,
260,414,
259,415,
260,419,
260,419,
261,417,
261,416,
260,417,
261,421,
263,422,
264,420,
264,419,
263,418,
263,421,
265,422,
266,419,
267,417,
266,417,
267,420,
269,420,
270,419,
270,415,
269,415,
270,418,
271,420,
273,417,
272,414,
271,412,
270,415,
270,416,
270,414,
270,411,
268,409,
267,411,
267,413,
268,410,
267,407,
266,404,
265,406,
264,407,
264,404,
264,400,
263,397,
262,397,
262,398,
262,395,
260,391,
258,387,
256,387,
254,389,
255,387,
253,384,
250,380,
247,380,
246,382,
245,382,
243,380,
241,380,
239,383,
238,389,
239,394,
241,399,
242,404,
244,414,
248,428,
255,442,
262,454,
271,469,
281,486,
292,508,
306,529,
320,549,
334,569,
350,591,
366,616,
384,639,
402,659,
420,676,
436,696,
454,716,
472,735,
489,748,
502,759,
514,771,
527,783,
539,792,
549,797,
558,797,
564,798,
568,801,
573,800,
576,796,
577,788,
575,779,
572,772,
568,764,
564,752,
558,737,
551,724,
544,712,
536,700,
527,685,
517,668,
506,652,
495,639,
484,628,
474,614,
463,599,
451,583,
438,573,
428,563,
417,552,
408,538,
397,526,
386,516,
377,508,
368,500,
358,489,
348,479,
340,473,
331,470,
324,465,
319,459,
311,454,
305,451,
299,452,
295,452,
292,449,
289,448,
286,450,
284,455,
283,461,
283,463,
284,465,
285,471,
286,479,
288,486,
292,492,
294,495,
297,502,
300,511,
305,519,
310,524,
315,529,
318,534,
322,541,
327,548,
332,551,
336,553,
339,554,
343,557,
347,561,
350,561,
353,559,
354,557,
356,557,
358,558,
360,555,
362,550,
362,544,
361,542,
361,540,
361,535,
360,529,
358,521,
355,516,
353,513,
352,507,
349,499,
345,492,
341,487,
337,484,
335,479,
332,471,
328,464,
324,459,
321,456,
318,451,
315,444,
310,438,
306,435,
303,434,
300,431,
297,426,
292,420,
288,417,
284,417,
282,417,
281,414,
278,410,
274,409,
271,411,
271,412,
270,411,
267,408,
265,407,
262,409,
260,411,
259,410,
257,408,
255,407,
255,410,
255,413,
254,413,
253,412,
254,411,
253,414,
253,417,
254,418,
253,416,
253,416,
253,418,
253,422,
256,423,
256,422,
257,421,
258,424,
259,428,
261,429,
261,429,
261,428,
261,430,
262,433,
263,435,
264,434,
265,432,
265,434,
267,438,
270,440,
272,439,
273,438,
275,439,
277,442,
278,444,
279,442,
280,440,
280,442,
281,445,
283,446,
284,444,
285,441,
284,442,
284,444,
286,445,
287,441,
288,439,
288,437,
287,439,
289,438,
288,436,
287,432,
285,430,
284,431,
284,431,
283,428,
281,424,
279,422,
276,423,
274,423,
272,421,
270,417,
267,414,
265,414,
263,415,
261,412,
258,407,
256,404,
253,404,
251,404,
250,402,
248,397,
246,394,
243,394,
241,396,
240,397,
239,394,
237,395,
237,399,
238,407,
241,414,
243,420,
246,429,
251,442,
258,460,
268,476,
279,491,
291,508,
304,527,
318,551,
334,573,
350,594,
366,613,
382,634,
399,658,
417,680,
435,697,
451,713,
466,730,
483,748,
499,765,
513,776,
526,784,
537,792,
548,801,
557,807,
566,808,
572,806,
576,804,
579,804,
581,801,
583,794,
581,783,
578,774,
573,765,
569,757,
564,744,
557,728,
549,713,
540,702,
531,690,
522,676,
511,659,
500,644,
488,632,
476,621,
464,608,
451,593,
437,579,
424,569,
411,561,
400,551,
388,538,
375,526,
364,517,
354,510,
344,502,
335,492,
325,484,
315,479,
308,477,
301,473,
294,467,
289,463,
283,462,
278,464,
276,466,
275,465,
274,464,
273,467,
273,474,
275,480,
276,484,
278,487,
281,492,
284,501,
290,509,
295,514,
300,518,
304,523,
309,532,
316,539,
323,545,
329,546,
335,552,
340,558,
347,563,
353,565,
359,565,
363,566,
368,569,
372,572,
377,571,
379,568,
382,566,
382,567,
383,566,
384,563,
384,558,
383,552,
381,550,
379,547,
377,542,
373,534,
368,527,
364,522,
359,517,
355,511,
351,502,
345,493,
339,487,
335,483,
330,477,
325,468,
319,459,
312,453,
306,450,
302,444,
296,437,
290,428,
283,423,
279,420,
276,416,
272,409,
267,401,
262,397,
258,396,
255,394,
252,389,
248,385,
245,382,
242,384,
240,383,
238,381,
236,377,
232,375,
230,377,
229,378,
227,376,
225,374,
223,374,
221,376,
221,380,
220,379,
220,378,
217,377,
216,381,
216,384,
217,385,
218,384,
219,384,
220,387,
221,390,
223,391,
224,389,
223,389,
224,392,
225,397,
227,398,
228,398,
228,396,
228,399,
229,403,
229,404,
231,403,
231,402,
232,404,
234,409,
237,410,
240,408,
242,407,
243,409,
244,413,
246,414,
247,413,
249,413,
249,413,
250,416,
251,416,
252,415,
252,412,
252,411,
252,414,
253,414,
255,412,
255,409,
255,407,
255,408,
255,408,
256,406,
256,401,
254,400,
253,401,
252,401,
252,398,
252,393,
250,391,
249,392,
247,394,
246,391,
245,387,
243,386,
240,387,
239,389,
238,390,
237,388,
236,391,
236,396,
238,406,
240,413,
243,419,
248,429,
253,441,
260,458,
269,474,
280,487,
290,503,
302,523,
316,545,
332,566,
349,584,
365,602,
382,624,
399,646,
416,665,
433,680,
450,693,
465,709,
480,725,
495,737,
507,745,
518,750,
527,757,
535,764,
543,767,
549,766,
554,762,
555,760,
556,758,
556,753,
555,745,
552,735,
547,726,
543,718,
537,707,
531,694,
523,678,
514,666,
505,655,
495,644,
486,631,
475,615,
463,602,
450,592,
438,582,
427,571,
416,557,
404,546,
392,537,
381,529,
371,519,
361,507,
350,496,
340,490,
331,484,
323,477,
315,468,
306,460,
298,457,
292,456,
288,452,
282,446,
277,443,
272,443,
270,445,
268,445,
266,443,
265,443,
263,447,
265,453,
266,457,
267,460,
270,463,
270,470,
273,479,
278,486,
283,490,
287,495,
290,502,
295,511,
300,518,
305,522,
308,524,
311,530,
315,537,
321,542,
325,544,
330,544,
332,546,
335,549,
340,551,
344,550,
347,547,
348,544,
349,544,
350,543,
353,539,
353,533,
352,529,
351,526,
350,523,
351,518,
350,511,
347,505,
345,502,
343,498,
341,492,
338,485,
333,477,
329,473,
326,470,
323,465,
320,456,
316,451,
311,447,
307,445,
302,440,
298,433,
292,427,
287,424,
283,424,
279,421,
274,415,
269,411,
263,409,
259,409,
256,407,
253,404,
248,401,
244,401,
242,403,
240,403,
238,399,
237,397,
235,397,
234,400,
234,401,
234,399,
233,398,
231,399,
231,402,
231,403,
232,403,
231,402,
230,402,
230,406,
232,407,
234,407,
235,405,
236,405,
237,408,
238,410,
240,409,
240,408,
240,407,
240,410,
241,413,
242,412,
242,411,
242,410,
243,412,
244,414,
245,415,
245,413,
245,411,
245,412,
246,415,
247,416,
247,413,
246,412,
246,414,
245,417,
247,417,
248,415,
248,412,
247,412,
247,415,
247,416,
247,414,
247,412,
246,412,
247,415,
247,414,
248,412,
248,409,
248,409,
247,411,
248,412,
247,408,
247,404,
245,404,
244,406,
244,405,
244,402,
242,399,
240,398,
240,400,
240,400,
240,398,
239,395,
238,395,
237,398,
237,401,
238,401,
238,402,
238,406,
239,414,
243,423,
247,432,
253,439,
257,450,
264,466,
272,483,
283,499,
295,513,
307,531,
321,553,
337,577,
355,596,
372,614,
388,632,
406,653,
425,674,
444,691,
462,705,
478,718,
495,733,
510,748,
525,758,
538,765,
549,771,
557,777,
565,782,
572,784,
577,780,
580,775,
580,771,
581,768,
579,761,
575,751,
570,739,
562,727,
554,718,
545,707,
536,693,
524,678,
512,664,
499,654,
488,642,
477,628,
464,612,
451,600,
439,591,
428,580,
417,568,
405,554,
393,543,
382,536,
371,528,
361,518,
350,506,
340,497,
330,493,
322,488,
314,482,
307,474,
298,468,
291,466,
285,464,
280,461,
276,456,
271,454,
268,455,
267,458,
266,459,
265,459,
264,462,
264,467,
266,474,
269,479,
272,481,
275,484,
277,491,
283,499,
288,506,
294,509,
299,514,
305,522,
310,530,
317,538,
323,541,
328,545,
332,550,
336,556,
341,560,
345,561,
348,560,
350,563,
352,566,
356,567,
358,565,
360,560,
360,559,
361,559,
361,558,
361,554,
360,547,
358,543,
356,542,
355,538,
353,531,
350,523,
346,517,
342,513,
339,509,
337,503,
333,495,
329,490,
326,486,
323,483,
320,477,
316,468,
312,462,
308,459,
304,457,
300,451,
296,444,
291,439,
286,438,
282,438,
278,435,
276,429,
271,425,
268,425,
264,424,
262,422,
259,418,
257,415,
254,415,
252,418,
250,418,
250,415,
248,414,
245,415,
244,418,
244,420,
245,418,
243,417,
242,419,
241,422,
241,423,
242,421,
241,420,
240,421,
241,425,
243,426,
243,426,
244,424,
243,425,
244,429,
245,430,
245,429,
246,427,
245,427,
247,430,
249,432,
251,431,
252,429,
252,429,
252,431,
254,433,
255,432,
256,430,
256,429,
256,432,
258,434,
260,433,
260,430,
259,429,
259,431,
260,432,
262,431,
262,428,
262,427,
261,429,
263,430,
264,430,
265,426,
264,424,
263,425,
264,427,
263,426,
262,422,
260,420,
258,420,
256,421,
256,420,
254,417,
251,413,
248,414,
246,416,
246,415,
245,412,
243,411,
241,411,
241,415,
241,418,
241,420,
242,422,
243,429,
246,440,
251,449,
257,458,
263,468,
269,481,
279,499,
290,516,
302,532,
316,547,
330,566,
346,587,
362,607,
379,624,
395,640,
412,657,
428,677,
446,694,
463,708,
477,719,
491,731,
503,743,
516,756,
527,761,
535,764,
541,766,
547,770,
552,772,
556,770,
558,765,
556,758,
554,754,
551,749,
547,740,
541,728,
534,715,
527,705,
519,696,
511,684,
501,668,
489,653,
477,642,
466,630,
456,618,
446,603,
434,589,
421,578,
411,569,
400,558,
391,545,
379,532,
368,522,
358,514,
348,506,
339,496,
329,487,
319,480,
312,478,
305,473,
299,467,
291,460,
285,457,
279,458,
277,459,
274,456,
270,454,
266,455,
264,459,
263,464,
263,465,
263,467,
264,471,
265,479,
268,486,
272,491,
275,494,
279,500,
283,509,
288,517,
293,523,
298,527,
302,532,
306,540,
313,548,
320,552,
325,554,
330,557,
334,561,
339,566,
344,568,
348,566,
350,565,
353,565,
356,567,
359,565,
362,561,
363,557,
363,555,
363,554,
363,551,
363,544,
362,539,
361,536,
358,534,
356,530,
354,522,
349,515,
344,511,
340,508,
335,504,
330,497,
325,490,
319,485,
313,482,
308,478,
303,472,
299,465,
295,460,
291,459,
288,456,
286,450,
283,444,
279,441,
275,440,
273,438,
272,435,
271,430,
267,428,
264,429,
261,428,
260,425,
257,422,
254,420,
251,421,
250,422,
249,420,
248,418,
246,417,
245,420,
245,422,
245,422,
246,420,
245,421,
245,423,
246,426,
247,426,
247,424,
247,423,
247,426,
247,430,
248,431,
248,430,
249,429,
249,431,
250,434,
251,435,
251,432,
251,432,
250,433,
250,436,
251,437,
252,435,
251,433,
251,434,
252,437,
254,438,
255,435,
255,433,
255,432,
255,436,
258,436,
259,433,
261,431,
260,431,
261,434,
262,435,
264,433,
263,431,
262,431,
263,433,
263,435,
264,433,
264,431,
263,430,
262,432,
262,433,
262,431,
262,428,
261,426,
260,427,
261,428,
261,425,
262,422,
259,419,
257,421,
256,420,
255,419,
254,416,
253,414,
252,415,
252,418,
252,419,
252,418,
252,421,
252,428,
254,437,
258,445,
263,453,
269,465,
275,481,
285,498,
298,516,
312,532,
325,551,
340,573,
356,597,
374,619,
393,639,
412,658,
430,680,
447,704,
467,725,
485,742,
503,757,
518,773,
532,791,
546,805,
559,814,
570,820,
578,826,
585,834,
592,839,
597,837,
600,834,
601,832,
601,829,
600,824,
598,815,
593,803,
586,792,
580,783,
573,772,
565,759,
556,743,
545,728,
533,715,
523,704,
512,691,
500,673,
486,659,
474,648,
462,638,
452,626,
440,612,
429,601,
417,592,
407,584,
398,575,
388,564,
378,554,
367,547,
358,542,
349,536,
341,526,
333,518,
324,513,
318,512,
312,508,
308,504,
303,500,
299,501,
296,504,
294,507,
293,506,
292,508,
291,512,
291,519,
293,525,
296,528,
298,533,
301,538,
304,546,
308,553,
312,557,
317,561,
321,566,
326,574,
332,581,
337,583,
342,585,
346,588,
350,594,
354,598,
359,600,
363,599,
366,599,
369,602,
373,604,
377,602,
379,599,
380,596,
380,596,
381,594,
382,591,
382,584,
379,578,
377,575,
375,572,
372,565,
371,557,
367,550,
364,546,
361,541,
358,535,
354,527,
350,518,
346,513,
342,508,
338,503,
334,495,
328,487,
322,484,
318,481,
313,477,
311,469,
306,463,
301,459,
297,457,
293,454,
290,449,
286,444,
282,442,
279,442,
276,441,
274,438,
271,434,
267,433,
264,434,
263,435,
262,434,
261,431,
260,430,
260,432,
261,436,
262,434,
262,433,
262,433,
262,436,
263,439,
265,438,
267,436,
267,436,
268,440,
268,443,
270,442,
271,440,
272,439,
273,443,
274,446,
276,446,
277,445,
277,445,
278,448,
279,452,
281,451,
282,450,
284,448,
283,451,
285,454,
288,455,
290,453,
290,451,
290,453,
294,456,
296,456,
297,454,
297,452,
296,454,
296,457,
296,457,
297,456,
296,454,
295,455,
295,458,
295,458,
297,456,
296,454,
296,455,
295,457,
296,458,
296,455,
295,452,
294,451,
293,454,
293,455,
291,453,
291,448,
289,447,
288,448,
288,448,
286,445,
285,440,
282,438,
279,439,
277,439,
275,436,
272,432,
269,430,
265,430,
263,430,
262,427,
261,422,
258,419,
256,420,
255,421,
255,419,
253,416,
252,416,
250,420,
251,425,
252,430,
254,434,
258,442,
264,455,
271,471,
281,487,
292,502,
304,521,
317,543,
334,569,
351,593,
370,618,
388,642,
407,669,
428,698,
448,725,
469,748,
488,771,
506,795,
523,820,
540,843,
557,859,
569,874,
581,891,
593,907,
604,920,
614,926,
620,930,
625,934,
628,939,
630,941,
631,936,
630,929,
627,922,
623,917,
620,910,
616,899,
610,885,
602,874,
593,863,
585,852,
577,838,
567,821,
556,807,
545,795,
534,784,
524,769,
513,755,
501,741,
490,731,
480,722,
472,712,
462,700,
451,690,
441,684,
433,678,
426,670,
418,659,
410,650,
402,644,
396,640,
391,633,
386,625,
380,619,
374,617,
371,615,
368,611,
364,605,
360,601,
357,600,
356,604,
355,604,
356,603,
356,602,
356,606,
356,611,
359,615,
361,618,
362,620,
364,625,
367,632,
371,637,
375,640,
378,642,
381,646,
386,652,
390,657,
393,660,
396,660,
399,662,
400,667,
403,670,
405,669,
406,666,
405,665,
405,666,
405,666,
405,663,
404,658,
402,653,
400,651,
400,649,
399,643,
397,634,
394,626,
390,621,
388,616,
386,608,
383,598,
378,588,
374,581,
371,576,
367,567,
363,556,
358,547,
351,540,
346,535,
341,527,
336,518,
332,508,
326,502,
322,498,
320,492,
316,484,
311,477,
307,472,
303,471,
301,467,
298,461,
295,455,
291,452,
289,451,
287,449,
284,445,
281,440,
278,438,
276,440,
275,440,
274,437,
273,434,
271,434,
270,436,
270,437,
270,435,
271,433,
271,433,
272,436,
273,439,
274,438,
275,436,
274,437,
274,440,
277,442,
278,442,
280,439,
278,439,
279,442,
280,445,
283,445,
284,444,
284,443,
284,446,
285,448,
286,448,
287,445,
288,444,
288,446,
290,448,
291,448,
293,445,
292,443,
292,444,
293,447,
295,447,
295,444,
294,442,
293,442,
292,444,
292,443,
292,440,
291,436,
290,435,
289,438,
289,437,
289,434,
287,431,
285,430,
284,432,
284,432,
284,428,
284,424,
282,423,
282,425,
283,425,
282,423,
281,418,
278,416,
277,418,
276,418,
275,415,
273,410,
271,407,
270,408,
268,408,
268,404,
266,399,
264,397,
263,397,
262,397,
262,394,
260,390,
258,387,
256,387,
256,387,
256,386,
254,382,
252,381,
251,383,
250,387,
251,390,
253,391,
254,396,
255,406,
259,420,
264,433,
271,445,
279,462,
288,484,
301,511,
315,535,
330,559,
345,586,
362,616,
379,649,
400,681,
420,709,
439,739,
458,770,
478,803,
498,831,
517,856,
533,879,
548,901,
563,925,
579,945,
593,960,
603,972,
611,983,
618,991,
625,991,
629,991,
632,991,
631,991,
632,991,
632,990,
630,978,
627,966,
621,955,
615,948,
610,938,
603,926,
595,911,
586,897,
576,887,
568,876,
560,861,
551,846,
540,832,
530,821,
522,811,
513,800,
503,787,
494,776,
485,769,
478,762,
471,753,
464,743,
455,733,
447,727,
441,722,
434,715,
428,705,
421,696,
414,689,
409,686,
404,680,
399,671,
395,664,
390,660,
387,659,
383,657,
382,652,
379,649,
376,649,
375,651,
375,653,
375,651,
375,651,
374,652,
375,658,
377,662,
379,662,
381,663,
383,665,
384,671,
386,674,
389,674,
392,672,
393,673,
395,676,
398,678,
400,677,
402,675,
402,674,
402,675,
404,676,
406,672,
407,667,
406,663,
406,661,
406,659,
406,654,
406,646,
404,639,
401,634,
400,629,
399,622,
396,612,
393,601,
389,594,
387,588,
384,579,
380,567,
375,557,
369,550,
365,543,
362,535,
357,523,
352,512,
347,504,
343,499,
339,491,
335,481,
330,472,
324,466,
320,463,
316,457,
312,450,
307,441,
303,437,
300,436,
298,433,
295,428,
292,422,
288,419,
287,419,
284,418,
282,414,
280,410,
277,409,
274,411,
275,412,
274,410,
273,407,
271,408,
271,411,
271,413,
271,413,
272,411,
272,411,
273,414,
274,416,
276,416,
277,414,
277,414,
278,416,
280,419,
281,419,
282,417,
280,417,
281,419,
282,421,
283,421,
283,419,
283,418,
282,420,
282,422,
284,422,
285,419,
284,417,
285,418,
285,420,
286,419,
286,416,
287,414,
287,414,
288,416,
288,416,
289,412,
289,409,
288,409,
288,410,
290,410,
289,406,
288,403,
287,402,
286,404,
287,404,
286,400,
286,397,
284,397,
285,398,
284,397,
284,394,
282,390,
282,390,
280,391,
280,391,
279,387,
278,382,
276,381,
276,382,
276,381,
275,378,
274,374,
271,371,
271,372,
270,373,
269,370,
269,366,
267,364,
265,364,
265,365,
264,363,
262,359,
260,357,
258,358,
258,360,
258,358,
255,353,
254,349,
253,350,
252,351,
252,349,
251,345,
248,342,
248,343,
248,343,
247,341,
246,337,
245,334,
242,335,
241,337,
242,338,
242,336,
241,337,
241,342,
242,352,
244,361,
247,369,
250,380,
256,395,
263,415,
273,436,
283,456,
294,478,
307,505,
322,537,
339,569,
357,600,
375,632,
394,665,
414,702,
435,738,
455,771,
475,801,
494,831,
512,864,
532,894,
550,918,
565,938,
579,958,
591,979,
603,991,
614,991,
622,990,
627,991,
631,991,
634,991,
635,992,
634,991,
631,991,
627,992,
622,991,
617,986,
610,968,
603,953,
594,940,
585,929,
576,914,
567,896,
555,879,
543,865,
532,852,
521,837,
510,820,
498,804,
485,791,
474,781,
464,769,
454,755,
444,741,
435,730,
426,722,
418,711,
411,698,
404,684,
397,674,
391,667,
386,657,
383,645,
379,634,
374,626,
370,621,
367,615,
364,608,
361,600,
357,596,
354,596,
353,596,
353,592,
352,589,
351,588,
352,592,
354,595,
356,596,
357,596,
357,598,
359,603,
361,609,
363,612,
365,612,
368,615,
370,619,
374,625,
377,627,
379,626,
380,628,
381,630,
383,634,
385,634,
386,630,
387,628,
386,628,
387,628,
387,625,
386,619,
384,613,
383,609,
384,606,
384,601,
382,592,
380,584,
378,577,
376,572,
374,566,
372,556,
368,545,
363,539,
359,533,
356,525,
352,514,
347,503,
341,495,
336,489,
333,482,
329,472,
324,463,
318,455,
314,451,
310,445,
307,437,
302,428,
298,422,
294,420,
292,416,
289,409,
287,402,
283,397,
281,396,
279,394,
278,390,
277,384,
275,381,
273,381,
273,381,
273,379,
272,375,
271,374,
269,375,
268,377,
268,378,
269,375,
267,374,
266,376,
267,379,
269,378,
268,376,
268,375,
268,378,
270,381,
271,382,
271,380,
270,380,
270,382,
270,385,
272,386,
272,385,
272,384,
271,386,
271,390,
272,390,
273,388,
273,387,
273,388,
275,392,
275,393,
276,391,
277,389,
277,389,
279,392,
280,392,
281,390,
281,386,
281,385,
281,388,
283,388,
283,386,
283,383,
282,381,
282,383,
283,383,
283,381,
282,377,
280,375,
278,377,
277,378,
277,376,
276,373,
273,371,
271,372,
271,372,
271,370,
270,365,
268,362,
266,363,
265,365,
264,362,
262,359,
260,356,
258,357,
259,357,
260,356,
259,352,
259,349,
258,350,
258,351,
258,350,
257,346,
256,343,
255,344,
255,346,
255,344,
255,340,
255,336,
253,336,
252,337,
252,336,
252,331,
250,328,
249,327,
248,329,
247,327,
246,324,
243,320,
241,318,
240,319,
239,319,
239,315,
237,312,
235,311,
234,313,
235,314,
235,313,
234,311,
233,312,
233,319,
234,324,
236,329,
238,335,
240,344,
243,360,
249,377,
256,394,
264,412,
273,434,
285,462,
300,492,
315,520,
332,549,
348,580,
366,617,
387,653,
407,687,
427,718,
446,749,
464,782,
483,815,
501,843,
518,866,
533,888,
547,911,
561,933,
573,949,
583,959,
591,966,
596,974,
603,980,
607,981,
610,976,
609,970,
608,964,
606,957,
602,946,
597,931,
591,915,
582,900,
573,886,
564,869,
555,849,
543,828,
533,809,
521,792,
511,775,
500,755,
488,736,
476,719,
465,705,
454,690,
444,674,
433,656,
423,642,
413,632,
404,620,
395,606,
386,591,
376,578,
368,570,
361,562,
355,551,
348,540,
339,532,
334,527,
328,523,
324,517,
320,511,
316,507,
314,508,
312,511,
311,511,
310,510,
310,511,
311,517,
312,523,
315,528,
317,531,
319,535,
320,543,
323,552,
328,558,
332,562,
335,566,
338,573,
342,580,
346,586,
349,590,
351,592,
355,597,
358,602,
361,606,
364,605,
367,604,
368,604,
370,606,
373,605,
375,601,
376,596,
376,593,
376,592,
377,588,
377,580,
375,571,
373,565,
372,560,
369,554,
367,544,
365,533,
361,525,
358,519,
356,511,
352,502,
348,491,
343,482,
339,476,
335,469,
332,460,
327,449,
321,441,
316,436,
312,431,
308,424,
303,415,
299,407,
294,403,
290,400,
287,395,
282,387,
277,382,
273,379,
269,378,
267,375,
264,370,
261,367,
258,367,
258,369,
258,369,
258,366,
258,364,
255,365,
255,368,
256,369,
255,367,
254,365,
253,367,
254,370,
254,371,
254,370,
255,369,
254,370,
255,375,
256,376,
258,375,
259,373,
259,374,
260,377,
262,379,
263,378,
264,375,
265,375,
265,379,
267,381,
268,380,
268,378,
268,377,
268,381,
269,382,
270,380,
270,378,
268,378,
269,381,
270,383,
271,382,
271,379,
270,377,
269,380,
271,381,
271,380,
271,377,
270,376,
269,378,
269,379,
270,378,
269,375,
268,373,
267,375,
268,377,
269,375,
269,372,
269,369,
268,370,
269,371,
270,370,
271,365,
270,362,
269,362,
269,363,
269,362,
269,358,
269,355,
268,354,
267,356,
267,355,
266,351,
263,347,
261,346,
259,347,
259,346,
257,341,
255,337,
252,335,
249,336,
246,335,
244,330,
241,326,
237,323,
236,324,
235,324,
233,322,
232,318,
230,318,
229,321,
229,323,
229,324,
228,325,
227,330,
229,340,
231,351,
236,362,
240,376,
246,391,
254,413,
264,437,
276,460,
288,483,
302,509,
316,541,
333,574,
351,606,
369,635,
387,667,
404,700,
423,734,
443,765,
462,792,
480,817,
497,844,
514,873,
530,894,
545,911,
557,927,
567,943,
577,958,
586,967,
594,970,
597,972,
600,973,
602,974,
604,970,
602,961,
598,949,
594,938,
588,928,
582,914,
575,897,
567,879,
556,863,
547,848,
537,831,
528,812,
515,792,
503,773,
491,758,
481,742,
469,723,
459,705,
448,689,
437,677,
428,665,
418,650,
409,633,
399,620,
390,609,
382,600,
375,586,
367,573,
357,561,
350,553,
342,548,
337,539,
332,529,
327,522,
322,519,
318,517,
316,513,
313,509,
311,507,
309,510,
308,514,
310,516,
311,516,
311,518,
312,524,
315,532,
318,538,
321,541,
322,545,
325,553,
329,561,
333,567,
337,569,
340,572,
343,578,
347,585,
352,590,
356,591,
359,591,
361,593,
364,598,
366,599,
370,597,
370,593,
370,592,
370,592,
371,591,
371,585,
370,578,
367,574,
367,571,
365,566,
363,559,
361,550,
357,541,
353,536,
351,529,
349,520,
345,507,
340,497,
337,491,
333,484,
330,475,
326,465,
321,456,
318,450,
314,446,
311,437,
308,428,
303,419,
298,415,
295,410,
292,403,
288,394,
284,387,
281,385,
279,383,
278,378,
276,372,
272,368,
269,366,
268,366,
267,365,
264,361,
261,357,
259,357,
257,360,
256,360,
256,358,
255,357,
253,359,
252,363,
252,364,
252,363,
250,364,
250,365,
250,370,
251,373,
253,372,
252,372,
254,373,
254,377,
256,379,
257,378,
257,376,
257,378,
257,380,
259,383,
260,382,
261,380,
260,380,
261,382,
262,383,
263,383,
264,381,
263,381,
263,383,
264,385,
265,384,
266,382,
266,380,
267,383,
268,384,
270,383,
270,381,
270,379,
271,380,
272,381,
274,380,
275,376,
272,373,
271,375,
270,376,
271,375,
269,371,
267,368,
265,368,
264,371,
263,369,
262,365,
260,363,
259,364,
259,365,
260,364,
260,360,
258,357,
257,357,
257,358,
257,357,
257,353,
256,351,
255,351,
255,352,
256,352,
256,348,
256,344,
254,345,
253,346,
254,346,
253,344,
250,339,
248,338,
247,339,
245,339,
243,336,
242,331,
240,329,
237,330,
236,330,
236,327,
234,323,
231,322,
229,323,
229,324,
228,323,
227,320,
225,320,
224,325,
224,331,
225,337,
226,343,
230,353,
233,369,
239,387,
247,406,
255,425,
265,447,
276,476,
290,506,
307,536,
324,565,
342,597,
361,633,
382,671,
405,706,
426,739,
446,771,
467,806,
488,841,
508,872,
527,899,
544,924,
558,950,
573,974,
587,990,
600,991,
610,991,
617,992,
623,991,
628,991,
632,992,
634,991,
634,991,
633,991,
633,991,
630,991,
625,991,
618,990,
611,991,
605,984,
597,966,
588,947,
578,932,
568,919,
559,904,
550,887,
539,868,
527,852,
517,838,
507,823,
497,807,
486,790,
475,774,
464,761,
455,750,
445,735,
436,718,
425,703,
415,691,
406,681,
397,668,
389,652,
380,639,
372,629,
366,621,
361,612,
356,601,
351,592,
346,587,
342,585,
340,581,
338,575,
335,571,
334,572,
334,575,
335,575,
335,574,
336,574,
336,577,
339,583,
342,588,
344,589,
347,590,
348,595,
351,601,
354,606,
357,608,
359,611,
361,613,
364,619,
367,623,
371,623,
373,622,
374,623,
375,626,
378,627,
380,625,
380,622,
379,619,
379,620,
380,619,
381,614,
381,606,
379,601,
378,598,
377,594,
376,586,
374,577,
372,568,
367,563,
364,557,
360,548,
356,538,
350,527,
345,521,
341,514,
337,505,
333,494,
327,484,
322,477,
318,473,
316,465,
312,455,
307,446,
303,441,
299,436,
295,430,
292,421,
288,414,
283,409,
280,407,
278,403,
276,396,
272,390,
269,389,
267,388,
265,386,
264,382,
263,378,
261,377,
262,378,
262,378,
262,376,
262,374,
261,375,
260,378,
262,381,
262,379,
262,377,
263,378,
263,381,
264,383,
264,383,
265,381,
264,382,
264,385,
266,389,
267,389,
267,387,
267,388,
267,391,
268,393,
269,393,
269,391,
268,391,
268,394,
269,397,
269,396,
269,393,
268,392,
268,394,
269,396,
268,396,
268,393,
268,391,
266,393,
266,394,
267,393,
267,389,
266,386,
266,386,
266,388,
266,385,
267,381,
266,377,
266,378,
266,378,
266,378,
267,373,
267,370,
266,369,
265,371,
267,369,
266,366,
264,361,
262,360,
262,362,
262,360,
262,356,
262,352,
261,351,
262,351,
262,351,
263,347,
263,342,
262,341,
262,342,
263,342,
262,337,
261,333,
258,332,
257,333,
256,333,
256,330,
255,326,
252,324,
249,326,
249,326,
247,322,
246,318,
243,317,
239,317,
237,318,
234,315,
232,312,
229,310,
227,312,
226,313,
226,312,
226,309,
225,309,
225,313,
226,318,
228,322,
230,326,
231,332,
233,345,
237,361,
244,376,
250,392,
258,411,
267,436,
279,465,
292,494,
307,522,
322,553,
338,589,
357,628,
375,666,
396,701,
416,735,
435,771,
456,810,
478,845,
498,876,
518,904,
535,934,
552,963,
568,988,
583,990,
595,991,
606,991,
615,991,
624,991,
631,991,
636,991,
638,992,
639,992,
640,991,
640,991,
637,990,
633,991,
627,991,
623,991,
617,991,
609,991,
600,991,
590,991,
581,991,
572,991,
562,991,
550,974,
539,961,
529,948,
520,934,
510,917,
500,900,
490,887,
482,875,
473,860,
467,844,
458,827,
450,814,
442,802,
435,787,
428,769,
419,752,
410,738,
402,725,
395,712,
388,695,
381,679,
373,667,
367,657,
361,647,
357,633,
352,621,
347,613,
343,609,
340,604,
337,597,
334,590,
331,587,
330,587,
331,587,
333,584,
334,581,
334,582,
337,586,
341,589,
344,590,
346,589,
347,590,
350,594,
352,598,
355,599,
358,598,
359,597,
361,601,
364,603,
366,603,
366,599,
367,597,
367,598,
368,599,
368,595,
368,589,
366,584,
365,583,
365,581,
365,577,
364,569,
361,562,
360,558,
358,554,
356,548,
354,538,
350,530,
346,524,
343,519,
340,511,
337,502,
333,494,
329,487,
325,483,
322,476,
319,467,
316,459,
311,451,
309,448,
307,442,
304,434,
300,424,
296,419,
292,416,
290,412,
288,405,
286,398,
283,394,
281,392,
279,390,
278,385,
275,378,
271,376,
270,376,
270,377,
269,373,
267,370,
264,368,
263,370,
260,372,
260,370,
260,367,
258,367,
259,369,
261,371,
262,371,
262,368,
262,368,
262,370,
263,373,
265,374,
266,371,
265,370,
265,373,
266,377,
267,376,
268,374,
266,373,
266,375,
267,377,
267,377,
270,374,
270,371,
270,372,
272,375,
273,376,
274,373,
274,370,
273,370,
273,372,
275,372,
276,369,
276,366,
275,366,
275,368,
275,368,
275,367,
274,364,
274,364,
273,366,
274,366,
273,364,
271,360,
269,360,
267,362,
266,363,
266,360,
263,357,
263,357,
262,359,
262,360,
262,359,
262,356,
261,356,
261,359,
262,361,
262,360,
261,358,
260,358,
259,361,
260,364,
261,362,
261,360,
261,359,
260,360,
259,361,
260,359,
259,354,
257,348,
256,347,
255,346,
255,342,
254,336,
251,331,
250,328,
250,326,
249,322,
247,315,
245,308,
243,306,
242,304,
242,301,
242,296,
241,292,
239,291,
241,293,
242,292,
243,290,
245,289,
247,292,
251,298,
256,302,
263,304,
271,307,
279,314,
288,325,
300,334,
313,340,
325,348,
340,357,
355,371,
372,383,
389,393,
405,403,
420,417,
435,435,
451,454,
466,470,
479,486,
491,506,
502,530,
514,555,
525,577,
533,600,
538,623,
543,650,
549,676,
554,698,
557,718,
558,737,
558,758,
559,779,
559,795,
557,808,
554,820,
550,834,
547,848,
543,859,
538,866,
533,871,
525,880,
519,888,
513,892,
507,891,
500,892,
493,893,
487,895,
481,893,
475,888,
468,880,
461,876,
454,872,
448,864,
442,852,
434,839,
426,827,
420,817,
413,804,
408,787,
401,771,
393,757,
387,746,
382,734,
378,719,
373,704,
368,693,
366,685,
364,677,
362,667,
361,657,
358,651,
357,649,
358,645,
360,641,
361,633,
361,631,
363,631,
365,632,
367,630,
368,627,
368,626,
369,629,
372,631,
373,631,
374,629,
373,627,
374,629,
375,631,
375,629,
375,625,
374,622,
373,621,
374,620,
374,616,
374,610,
372,603,
371,600,
370,597,
370,591,
369,583,
366,574,
362,568,
360,563,
357,556,
355,546,
352,535,
348,528,
345,522,
342,513,
338,502,
332,492,
326,484,
322,479,
318,471,
314,461,
310,452,
305,445,
302,440,
299,434,
295,425,
290,416,
285,408,
281,406,
278,402,
275,396,
273,390,
270,385,
267,384,
265,382,
263,376,
260,371,
257,366,
255,366,
255,366,
255,362,
253,358,
251,354,
250,355,
249,354,
250,352,
249,348,
248,345,
248,345,
248,346,
248,344,
247,340,
245,338,
244,339,
244,340,
245,339,
245,336,
244,335,
243,336,
244,337,
245,338,
245,335,
245,334,
245,335,
246,339,
248,341,
250,339,
251,338,
251,341,
253,345,
256,347,
258,345,
259,344,
260,347,
261,352,
264,354,
265,354,
267,354,
267,356,
269,361,
271,364,
272,364,
273,362,
274,363,
275,367,
276,369,
278,367,
278,366,
277,366,
276,369,
276,369,
276,367,
275,363,
272,361,
271,364,
271,364,
270,362,
267,358,
263,357,
262,360,
260,363,
258,363,
258,362,
257,365,
258,371,
260,380,
263,386,
266,394,
268,405,
272,422,
278,441,
284,459,
291,477,
298,498,
306,523,
317,552,
331,578,
344,603,
356,629,
370,658,
385,687,
401,713,
416,736,
430,759,
443,783,
456,807,
470,826,
482,841,
494,852,
502,865,
511,878,
520,888,
527,892,
532,893,
535,894,
538,897,
541,894,
541,886,
539,877,
537,867,
534,859,
529,849,
525,834,
518,817,
510,802,
502,790,
496,775,
487,758,
478,740,
469,723,
459,709,
449,696,
441,680,
430,663,
421,647,
412,635,
404,622,
396,607,
386,591,
376,577,
366,566,
358,556,
350,543,
343,528,
335,515,
327,505,
321,497,
315,488,
310,478,
303,469,
298,464,
294,463,
292,459,
291,453,
289,450,
288,451,
287,454,
289,455,
290,456,
289,457,
290,462,
292,469,
295,475,
299,478,
301,482,
304,488,
308,496,
312,502,
315,507,
318,510,
320,515,
322,522,
325,528,
328,529,
330,530,
331,532,
333,536,
336,538,
339,536,
341,532,
340,530,
342,530,
344,529,
346,523,
345,516,
344,510,
343,506,
343,502,
343,495,
341,485,
337,477,
335,472,
332,465,
329,457,
325,446,
320,436,
316,430,
311,423,
308,414,
303,403,
299,393,
293,386,
290,382,
287,373,
284,363,
280,354,
277,349,
274,347,
271,341,
267,333,
263,326,
258,323,
255,321,
252,319,
250,313,
246,309,
242,308,
240,309,
239,307,
237,304,
234,301,
233,302,
231,306,
231,307,
231,305,
229,303,
228,304,
228,309,
228,310,
228,309,
227,310,
227,310,
226,314,
228,316,
229,316,
230,316,
231,319,
231,323,
234,327,
235,326,
236,324,
236,325,
237,328,
240,332,
241,331,
243,330,
243,330,
244,334,
247,336,
249,336,
251,334,
251,333,
251,335,
253,337,
254,336,
254,332,
255,330,
255,331,
255,332,
256,331,
256,327,
256,324,
254,325,
254,327,
253,325,
252,321,
251,318,
248,319,
248,321,
247,321,
245,317,
243,315,
240,316,
239,320,
238,322,
237,323,
236,327,
236,334,
238,345,
242,356,
247,367,
251,381,
257,399,
265,421,
274,443,
284,464,
295,485,
308,511,
321,539,
337,567,
352,592,
367,617,
381,643,
395,671,
410,697,
423,719,
435,739,
447,756,
457,777,
469,794,
479,806,
487,814,
495,821,
501,830,
506,835,
512,835,
514,830,
515,824,
514,820,
513,814,
510,804,
507,789,
502,774,
495,762,
490,749,
483,732,
477,713,
467,693,
458,677,
449,663,
440,645,
430,626,
419,607,
409,591,
399,577,
390,561,
381,544,
370,526,
361,511,
353,499,
346,485,
338,469,
330,454,
321,443,
314,434,
307,425,
300,414,
294,404,
288,398,
284,396,
279,392,
275,388,
271,384,
268,383,
266,387,
264,390,
264,391,
263,392,
262,397,
263,406,
264,415,
266,421,
267,427,
269,435,
271,447,
274,458,
279,466,
284,473,
288,481,
292,493,
299,502,
305,509,
310,514,
315,519,
319,527,
325,534,
329,538,
332,539,
333,539,
334,543,
336,544,
337,544,
339,539,
339,534,
339,533,
340,530,
341,526,
341,516,
338,508,
336,502,
334,498,
334,491,
330,482,
328,473,
324,466,
322,461,
319,452,
316,443,
311,431,
308,424,
304,418,
301,411,
297,401,
293,391,
288,385,
285,382,
282,377,
279,369,
276,361,
271,357,
268,355,
266,353,
264,348,
261,344,
258,341,
256,342,
256,342,
254,339,
252,336,
249,335,
247,337,
247,338,
246,337,
245,335,
243,335,
240,337,
239,341,
239,340,
238,338,
235,338,
233,342,
233,346,
233,346,
232,345,
230,344,
229,347,
228,350,
228,350,
228,347,
226,346,
225,348,
226,351,
226,351,
227,347,
227,345,
227,346,
229,348,
231,347,
232,344,
232,341,
232,340,
233,342,
235,341,
236,338,
235,335,
235,335,
235,337,
236,337,
237,336,
237,335,
237,335,
237,341,
239,344,
240,346,
240,349,
241,356,
244,367,
248,379,
252,390,
256,402,
262,417,
269,438,
277,458,
287,477,
298,496,
309,518,
320,544,
334,570,
349,592,
362,614,
375,636,
389,661,
402,684,
416,703,
428,718,
439,734,
449,749,
461,764,
470,772,
477,777,
483,780,
489,786,
493,789,
498,788,
500,783,
500,776,
499,771,
498,765,
496,755,
492,741,
487,726,
481,714,
475,701,
470,686,
463,668,
455,650,
447,636,
438,623,
431,607,
422,589,
412,571,
402,555,
394,543,
384,528,
375,512,
364,495,
354,481,
345,472,
336,459,
327,445,
318,432,
307,422,
298,414,
292,406,
286,395,
279,385,
273,380,
267,377,
264,375,
260,372,
257,369,
254,367,
251,371,
251,375,
251,376,
252,378,
251,383,
252,392,
254,401,
257,407,
261,412,
262,418,
265,428,
268,438,
272,446,
277,451,
280,458,
284,466,
288,477,
294,483,
298,488,
302,492,
305,499,
309,505,
313,509,
316,509,
319,510,
321,512,
323,515,
326,515,
328,510,
329,506,
329,503,
330,502,
330,498,
329,491,
327,483,
324,478,
323,475,
320,469,
318,459,
314,450,
310,444,
305,439,
302,433,
299,424,
295,414,
291,407,
287,404,
284,399,
280,391,
276,383,
271,378,
268,376,
265,373,
263,368,
259,361,
255,357,
251,358,
249,356,
247,352,
245,348,
242,345,
239,346,
238,348,
237,346,
236,343,
234,342,
232,344,
232,347,
232,346,
231,343,
230,342,
229,344,
229,346,
229,347,
229,344,
228,343,
228,346,
228,349,
229,350,
230,349,
229,348,
227,350,
228,354,
228,354,
228,352,
228,350,
227,352,
226,355,
227,356,
228,355,
228,353,
229,354,
229,357,
231,358,
232,356,
232,353,
233,354,
234,356,
236,358,
236,355,
238,353,
237,353,
236,355,
236,356,
236,353,
234,348,
232,347,
232,350,
231,350,
231,348,
230,344,
228,343,
227,345,
227,347,
229,347,
229,346,
229,348,
230,355,
232,364,
235,372,
239,381,
243,393,
250,412,
258,432,
269,452,
279,473,
290,496,
302,525,
318,555,
335,585,
353,612,
370,640,
386,672,
406,703,
424,730,
443,755,
460,779,
477,804,
495,828,
511,848,
526,863,
539,876,
549,888,
558,901,
568,909,
576,909,
581,909,
584,908,
586,907,
588,902,
588,892,
585,879,
580,868,
576,858,
571,844,
563,827,
556,808,
547,790,
537,775,
529,759,
518,738,
507,717,
495,699,
484,683,
472,667,
462,648,
451,629,
438,612,
427,600,
418,587,
409,572,
398,556,
387,542,
378,533,
369,522,
360,509,
351,497,
341,485,
331,479,
323,473,
317,465,
309,458,
302,450,
296,449,
291,448,
286,446,
283,443,
278,442,
275,446,
273,451,
272,454,
271,456,
270,459,
270,467,
272,475,
275,481,
277,485,
280,490,
283,497,
287,505,
292,512,
297,517,
300,522,
303,529,
307,538,
313,543,
317,545,
320,546,
323,548,
326,552,
330,554,
333,553,
335,550,
337,549,
339,550,
341,550,
342,546,
343,541,
343,536,
343,534,
343,530,
344,523,
343,513,
340,507,
338,502,
337,497,
335,489,
332,480,
327,472,
323,467,
320,462,
317,454,
313,444,
308,436,
303,432,
300,428,
296,421,
291,412,
286,406,
282,403,
278,400,
275,394,
271,387,
268,381,
264,379,
261,378,
258,374,
255,369,
252,365,
249,363,
247,363,
245,361,
243,357,
241,354,
238,354,
239,356,
239,357,
239,354,
238,352,
238,354,
237,357,
237,358,
237,357,
235,356,
235,357,
234,361,
234,363,
235,363,
236,362,
235,363,
234,368,
237,371,
238,370,
238,369,
238,371,
239,375,
238,377,
238,377,
239,377,
238,377,
237,380,
238,382,
239,381,
238,379,
239,379,
239,381,
240,382,
242,381,
244,377,
244,376,
244,376,
245,378,
247,376,
247,372,
247,370,
247,371,
247,372,
247,369,
247,365,
246,363,
245,363,
245,364,
245,364,
244,361,
242,360,
241,364,
241,370,
242,375,
243,379,
244,386,
246,399,
250,415,
256,431,
262,446,
270,464,
279,486,
291,512,
305,537,
320,560,
335,584,
351,610,
367,640,
385,666,
404,690,
421,712,
438,736,
454,760,
472,781,
488,798,
501,812,
512,826,
524,841,
535,853,
546,858,
553,860,
558,862,
562,864,
565,863,
567,857,
566,847,
562,837,
558,828,
554,818,
549,804,
543,786,
536,769,
526,754,
518,740,
508,721,
497,701,
485,681,
473,665,
461,650,
450,633,
439,616,
427,599,
415,586,
403,575,
394,561,
385,545,
374,531,
363,520,
355,511,
347,500,
339,488,
330,477,
322,469,
315,464,
309,458,
303,449,
295,442,
288,440,
283,440,
279,438,
276,436,
272,434,
270,435,
267,440,
267,444,
267,446,
267,448,
266,453,
267,463,
271,471,
273,476,
275,482,
278,489,
282,500,
288,508,
293,514,
299,520,
303,527,
306,537,
313,544,
317,548,
322,551,
325,555,
328,561,
333,565,
336,566,
339,564,
340,563,
342,563,
344,564,
347,561,
348,555,
348,550,
348,548,
349,545,
349,539,
350,530,
348,523,
345,517,
344,513,
342,507,
340,497,
336,488,
333,483,
330,478,
326,471,
324,461,
319,452,
315,446,
311,442,
307,436,
304,427,
298,419,
294,415,
291,413,
288,408,
286,403,
282,396,
278,393,
274,392,
272,391,
270,386,
266,382,
262,380,
259,381,
258,380,
256,377,
253,374,
251,373,
248,376,
247,378,
246,376,
244,373,
242,372,
241,375,
240,376,
241,375,
239,373,
237,372,
236,375,
237,377,
236,377,
237,375,
236,375,
236,378,
237,381,
238,381,
239,380,
238,379,
238,382,
238,386,
239,386,
240,384,
239,383,
239,385,
239,388,
241,388,
242,385,
241,382,
241,383,
241,384,
242,383,
242,380,
241,377,
240,376,
240,379,
240,377,
240,374,
239,371,
239,371,
239,373,
240,374,
242,374,
242,374,
242,379,
244,387,
247,395,
251,402,
256,413,
260,426,
267,445,
276,464,
285,483,
296,502,
306,526,
320,554,
335,581,
350,606,
365,630,
381,656,
399,683,
416,709,
434,731,
449,751,
464,770,
478,791,
492,809,
504,823,
516,833,
525,842,
533,852,
541,860,
547,862,
552,860,
554,857,
556,855,
557,852,
557,844,
556,831,
552,817,
547,807,
542,795,
536,780,
528,761,
519,743,
509,727,
500,711,
491,695,
481,675,
469,656,
457,640,
446,627,
436,611,
426,594,
413,576,
401,563,
390,551,
381,537,
372,522,
362,507,
351,496,
341,488,
333,479,
324,468,
316,457,
308,450,
301,446,
295,441,
290,434,
286,428,
280,425,
277,427,
274,428,
273,427,
271,426,
270,429,
269,435,
270,442,
272,445,
274,448,
275,454,
278,464,
282,474,
286,480,
290,485,
293,492,
298,501,
303,511,
308,518,
313,522,
317,527,
321,535,
327,543,
332,548,
335,549,
337,550,
339,553,
341,557,
343,556,
344,552,
344,550,
345,550,
346,549,
348,547,
348,540,
347,533,
345,529,
344,526,
344,520,
343,512,
341,504,
338,498,
336,494,
334,487,
331,480,
328,470,
323,463,
320,458,
317,451,
313,443,
310,433,
305,426,
301,423,
298,418,
294,411,
290,403,
285,398,
280,395,
276,392,
273,386,
270,381,
266,378,
262,377,
260,378,
257,374,
254,370,
250,367,
246,368,
244,368,
241,367,
239,364,
237,363,
235,365,
235,368,
235,368,
235,366,
232,366,
231,369,
232,372,
233,372,
233,371,
232,370,
232,373,
233,377,
235,378,
236,376,
236,375,
235,378,
237,381,
239,382,
241,381,
242,380,
241,382,
242,385,
243,386,
244,384,
244,382,
243,383,
244,386,
246,388,
247,385,
247,383,
246,384,
247,387,
248,387,
248,385,
248,383,
247,382,
247,385,
247,386,
248,384,
247,382,
245,381,
245,383,
246,384,
245,381,
245,378,
243,377,
242,379,
242,380,
243,377,
242,373,
239,371,
239,372,
239,372,
239,370,
238,366,
237,365,
236,367,
236,368,
237,367,
237,367,
237,369,
238,375,
239,383,
242,391,
246,400,
249,413,
256,432,
265,454,
275,475,
286,496,
299,520,
313,550,
330,582,
349,613,
369,642,
388,671,
409,704,
431,738,
454,769,
477,796,
499,822,
518,850,
537,878,
555,901,
571,921,
586,937,
599,953,
610,968,
621,979,
629,984,
634,985,
637,985,
639,985,
640,982,
641,974,
640,962,
637,951,
633,943,
628,931,
623,917,
616,898,
607,882,
598,868,
589,853,
578,835,
567,815,
554,797,
543,782,
530,767,
518,750,
505,732,
493,717,
480,704,
467,693,
457,679,
446,665,
434,652,
424,642,
414,633,
405,622,
397,609,
387,596,
379,588,
371,582,
363,573,
357,563,
349,554,
342,549,
337,547,
334,544,
330,539,
327,535,
324,535,
322,538,
321,539,
320,538,
319,538,
318,542,
320,547,
323,552,
325,554,
327,557,
329,563,
332,571,
336,577,
340,580,
343,583,
345,588,
348,594,
352,599,
355,601,
358,602,
360,603,
362,607,
366,609,
369,607,
372,604,
373,602,
373,604,
374,603,
376,599,
376,593,
375,588,
374,586,
374,583,
373,577,
372,568,
369,560,
366,556,
365,551,
363,543,
360,533,
356,524,
352,517,
348,512,
345,504,
340,493,
335,483,
330,478,
326,473,
323,466,
320,458,
316,450,
314,445,
310,442,
308,436,
304,428,
300,420,
296,416,
292,414,
289,410,
287,404,
283,399,
280,395,
277,394,
275,393,
271,388,
268,384,
264,383,
262,385,
261,385,
260,383,
258,381,
257,381,
256,384,
255,385,
256,384,
255,382,
254,382,
254,386,
255,389,
255,388,
255,387,
255,388,
255,393,
257,395,
258,395,
260,393,
260,394,
262,398,
264,400,
267,399,
268,397,
269,397,
268,401,
270,403,
271,403,
272,400,
272,399,
273,402,
275,404,
276,404,
277,401,
277,400,
277,402,
278,404,
279,403,
279,401,
278,399,
278,400,
277,402,
277,400,
276,398,
274,394,
273,393,
272,394,
272,393,
272,389,
271,385,
268,384,
267,385,
266,384,
266,379,
264,376,
262,375,
259,376,
257,374,
256,370,
253,365,
251,363,
248,365,
246,365,
245,361,
244,358,
242,359,
241,364,
242,368,
244,371,
244,376,
246,385,
248,400,
253,417,
261,432,
268,450,
277,471,
287,498,
300,527,
315,554,
331,580,
347,610,
365,644,
384,678,
405,709,
423,738,
443,767,
461,797,
483,827,
502,852,
519,872,
535,892,
550,912,
564,931,
578,944,
589,953,
596,959,
603,965,
609,969,
613,970,
616,964,
617,957,
616,951,
614,945,
612,933,
608,917,
602,901,
594,885,
586,871,
578,855,
569,835,
558,815,
547,798,
537,783,
526,765,
515,746,
502,728,
490,711,
478,699,
467,685,
455,669,
445,653,
433,639,
422,630,
414,621,
404,607,
396,592,
386,580,
378,572,
370,564,
362,553,
354,543,
346,535,
338,531,
333,527,
328,521,
324,514,
320,511,
317,511,
317,513,
317,514,
316,513,
316,515,
317,520,
319,527,
322,531,
326,533,
328,537,
333,544,
337,552,
342,559,
346,561,
349,565,
352,572,
357,580,
361,585,
365,587,
369,589,
371,594,
375,599,
378,602,
381,600,
382,598,
384,598,
385,600,
386,599,
387,594,
387,588,
385,584,
386,582,
386,578,
384,570,
382,561,
379,555,
378,551,
376,545,
373,535,
369,526,
364,517,
362,511,
359,504,
356,494,
351,483,
346,475,
342,470,
338,464,
334,456,
330,446,
324,438,
319,433,
316,428,
312,421,
307,412,
301,406,
296,403,
293,400,
289,394,
285,387,
281,383,
277,382,
275,381,
274,378,
271,373,
268,371,
266,371,
265,373,
266,372,
265,369,
264,367,
263,369,
263,372,
263,373,
263,371,
262,370,
261,372,
262,375,
264,376,
266,375,
265,374,
265,376,
264,379,
265,381,
266,380,
266,379,
265,380,
266,385,
267,387,
268,386,
269,384,
269,385,
270,390,
271,391,
270,390,
271,388,
271,388,
270,391,
271,393,
271,391,
271,389,
269,389,
268,392,
269,393,
271,392,
272,390,
272,389,
273,392,
274,393,
275,392,
274,388,
274,387,
272,389,
273,391,
273,390,
272,386,
270,385,
270,386,
270,387,
271,384,
270,379,
269,376,
267,374,
266,375,
267,371,
266,366,
264,361,
262,361,
259,360,
257,358,
255,353,
252,349,
248,348,
246,350,
244,348,
243,346,
243,345,
241,349,
241,356,
242,364,
244,371,
246,382,
251,396,
256,416,
265,436,
274,456,
284,478,
296,503,
310,532,
327,562,
343,591,
361,619,
377,649,
394,681,
413,712,
432,739,
449,762,
466,787,
484,813,
500,837,
516,855,
530,869,
542,883,
552,898,
563,909,
572,915,
579,917,
584,917,
587,917,
591,915,
591,907,
592,895,
588,883,
583,872,
579,859,
573,842,
567,823,
559,803,
551,786,
542,770,
532,750,
522,728,
509,707,
496,690,
485,673,
474,656,
463,636,
450,617,
437,602,
426,590,
416,575,
406,558,
395,542,
384,530,
374,520,
365,508,
358,495,
348,483,
339,475,
330,469,
324,463,
317,456,
311,449,
304,447,
300,448,
297,448,
294,446,
292,446,
290,448,
289,455,
289,461,
292,465,
294,469,
295,475,
298,484,
303,493,
307,500,
311,505,
315,513,
319,523,
324,533,
330,540,
335,545,
339,549,
342,558,
347,565,
351,568,
355,569,
357,569,
358,573,
360,575,
362,575,
363,571,
363,567,
363,567,
364,566,
364,561,
364,554,
363,547,
361,543,
360,539,
359,532,
356,522,
354,512,
350,505,
348,500,
346,492,
343,482,
339,472,
335,466,
332,460,
330,453,
327,443,
323,433,
319,426,
316,422,
313,415,
310,406,
306,397,
301,392,
296,390,
294,385,
290,378,
286,372,
281,368,
277,368,
276,366,
274,362,
270,357,
266,354,
262,356,
260,357,
257,355,
254,352,
251,351,
249,355,
247,357,
247,356,
245,354,
243,354,
241,356,
241,359,
241,358,
240,356,
239,356,
238,359,
239,362,
240,362,
240,361,
240,361,
240,364,
242,367,
243,369,
244,367,
246,367,
246,370,
247,374,
249,376,
251,373,
252,372,
252,375,
254,378,
256,379,
258,377,
259,376,
258,377,
259,380,
261,381,
262,378,
262,376,
260,376,
260,378,
261,379,
262,376,
262,374,
261,374,
262,376,
262,378,
263,375,
261,370,
260,369,
259,371,
260,370,
259,367,
258,363,
255,362,
253,364,
253,364,
252,361,
250,356,
249,355,
248,356,
247,355,
247,352,
247,348,
245,345,
243,346,
243,347,
243,343,
241,340,
239,338,
237,340,
237,341,
238,341,
238,340,
237,342,
237,348,
240,357,
243,365,
246,374,
249,386,
253,405,
261,427,
270,448,
280,469,
291,494,
304,523,
320,555,
336,586,
354,616,
372,646,
391,679,
412,714,
433,745,
453,772,
473,798,
492,824,
511,851,
530,874,
548,893,
564,909,
577,924,
591,940,
603,950,
613,955,
621,955,
626,956,
631,957,
635,954,
636,946,
636,934,
633,923,
629,912,
626,899,
621,881,
615,861,
605,843,
596,827,
587,810,
577,789,
566,768,
554,747,
542,730,
530,713,
518,694,
505,673,
491,655,
479,640,
466,627,
454,612,
441,596,
428,581,
416,570,
406,560,
396,548,
385,534,
374,521,
363,513,
353,508,
346,500,
337,490,
329,483,
322,478,
317,478,
312,476,
308,471,
305,469,
302,472,
301,477,
301,480,
302,482,
302,483,
303,489,
305,497,
309,505,
313,509,
317,513,
320,520,
324,530,
330,539,
335,543,
339,548,
342,554,
346,562,
350,568,
354,570,
356,571,
358,573,
359,576,
362,578,
365,577,
367,575,
367,572,
369,573,
371,572,
372,567,
373,561,
372,556,
371,553,
370,549,
369,542,
367,533,
364,525,
361,519,
358,513,
356,505,
354,495,
349,487,
346,481,
343,476,
339,468,
335,457,
329,448,
324,442,
319,437,
314,430,
309,420,
304,411,
298,406,
295,403,
292,398,
288,391,
284,384,
281,381,
278,380,
277,376,
273,371,
270,367,
267,365,
265,366,
263,364,
262,362,
260,358,
257,358,
255,362,
253,362,
252,360,
250,359,
247,359,
246,362,
245,364,
244,363,
243,362,
242,362,
242,366,
243,368,
243,367,
243,366,
243,367,
243,370,
245,373,
246,372,
247,371,
247,372,
248,375,
248,378,
249,378,
250,376,
251,375,
251,378,
253,380,
255,381,
255,379,
255,378,
255,380,
255,383,
256,383,
257,380,
256,378,
257,381,
257,384,
258,385,
260,382,
259,379,
258,381,
259,383,
260,383,
262,380,
261,378,
261,378,
263,379,
263,379,
264,375,
262,372,
261,372,
261,374,
262,373,
262,370,
260,366,
258,366,
257,367,
256,367,
256,364,
254,360,
252,358,
251,359,
250,359,
249,355,
248,350,
246,348,
245,349,
244,348,
243,344,
241,340,
239,338,
236,340,
235,340,
235,339,
233,337,
231,338,
229,345,
230,352,
231,360,
232,368,
235,381,
239,400,
246,422,
253,443,
263,464,
274,488,
287,519,
303,551,
321,582,
339,612,
358,643,
378,677,
400,712,
423,743,
448,771,
469,798,
491,827,
513,856,
534,881,
553,901,
569,919,
585,936,
599,953,
614,964,
626,970,
635,973,
641,976,
644,978,
644,976,
644,968,
644,960,
644,950,
644,941,
644,930,
644,914,
644,897,
636,881,
628,866,
620,850,
611,830,
600,810,
587,791,
575,775,
564,759,
553,740,
539,720,
524,703,
511,690,
499,676,
487,661,
475,644,
463,631,
451,621,
440,611,
431,599,
421,584,
410,572,
399,564,
389,556,
381,547,
371,536,
361,527,
353,523,
347,520,
340,516,
334,510,
328,506,
324,507,
321,509,
319,511,
318,509,
316,510,
315,515,
315,522,
317,526,
320,529,
322,532,
325,538,
329,545,
334,551,
337,553,
340,556,
343,561,
347,568,
351,572,
355,573,
358,574,
360,576,
363,580,
367,582,
370,581,
372,578,
372,577,
374,580,
375,578,
376,574,
374,568,
372,564,
371,563,
371,559,
371,552,
369,543,
366,536,
365,532,
362,526,
362,518,
358,508,
354,500,
350,495,
347,489,
344,481,
341,471,
337,462,
332,458,
329,453,
326,445,
322,436,
317,427,
312,422,
309,419,
304,413,
300,404,
294,398,
289,395,
286,393,
282,389,
278,383,
274,378,
269,376,
265,376,
261,375,
258,370,
255,367,
251,366,
249,367,
248,366,
246,363,
244,361,
242,362,
241,364,
241,365,
242,362,
242,362,
241,362,
242,365,
245,367,
246,365,
246,364,
245,364,
246,368,
248,369,
250,368,
251,368,
251,369,
253,372,
254,375,
255,374,
255,373,
254,373,
255,376,
256,379,
258,378,
257,376,
258,375,
257,378,
258,381,
258,379,
258,377,
256,376,
257,379,
257,381,
258,380,
258,378,
257,377,
257,379,
258,382,
260,381,
261,378,
260,376,
261,377,
262,379,
262,378,
261,374,
260,372,
260,372,
260,374,
260,373,
260,369,
260,366,
258,367,
257,369,
255,368,
254,364,
251,361,
248,360,
246,362,
244,360,
243,356,
241,351,
238,351,
237,352,
237,351,
235,347,
234,344,
231,342,
229,343,
228,343,
228,338,
226,334,
224,333,
223,334,
223,335,
223,331,
221,329,
220,329,
220,333,
220,337,
220,340,
222,344,
222,352,
225,367,
230,383,
235,398,
241,416,
250,438,
260,465,
273,493,
289,519,
304,546,
320,575,
338,608,
358,642,
379,674,
400,702,
420,733,
440,764,
462,795,
485,822,
507,844,
525,866,
544,888,
560,908,
578,925,
593,935,
606,943,
616,950,
626,957,
634,957,
640,954,
643,947,
644,941,
644,935,
644,925,
644,910,
643,894,
637,879,
631,866,
625,850,
617,830,
607,810,
594,790,
582,774,
571,756,
560,736,
547,715,
533,697,
520,683,
508,669,
495,654,
483,637,
469,623,
455,612,
443,601,
432,589,
419,573,
407,562,
395,554,
385,546,
377,537,
367,525,
357,516,
349,512,
341,508,
335,503,
329,497,
324,494,
318,494,
316,496,
314,497,
313,494,
312,495,
312,499,
313,505,
314,508,
316,510,
317,514,
318,521,
321,530,
323,536,
327,539,
331,543,
333,550,
337,558,
343,562,
347,564,
352,566,
355,570,
360,576,
364,578,
367,577,
371,576,
372,577,
375,579,
378,578,
380,575,
380,570,
379,567,
379,567,
380,564,
378,558,
375,550,
372,545,
371,542,
368,537,
366,529,
363,521,
358,514,
355,511,
351,505,
348,497,
344,489,
340,482,
336,478,
333,474,
330,468,
327,459,
323,452,
319,450,
315,447,
312,441,
309,434,
305,430,
302,430,
299,429,
298,427,
294,422,
291,419,
288,420,
285,421,
285,420,
283,417,
280,416,
278,418,
277,421,
275,422,
274,421,
271,420,
269,423,
268,427,
266,428,
265,426,
264,425,
262,427,
261,430,
261,429,
261,427,
261,424,
261,424,
261,426,
262,425,
263,423,
264,419,
263,418,
264,421,
266,421,
268,419,
269,415,
269,415,
269,417,
272,418,
274,415,
275,413,
276,412,
278,415,
281,417,
283,416,
285,414,
286,414,
289,417,
292,420,
294,419,
295,416,
296,416,
296,420,
298,421,
301,420,
302,416,
302,415,
303,417,
303,418,
304,416,
304,413,
302,410,
301,410,
299,410,
299,408,
296,402,
293,399,
289,397,
287,397,
284,393,
280,385,
275,380,
270,377,
266,375,
262,370,
257,363,
252,356,
246,351,
240,347,
236,342,
231,335,
224,327,
219,323,
214,320,
210,315,
207,308,
203,302,
199,300,
195,301,
193,300,
191,297,
187,295,
183,298,
182,306,
183,313,
184,319,
185,329,
189,342,
193,361,
201,382,
209,402,
220,423,
231,448,
245,479,
262,509,
280,538,
298,567,
317,597,
338,632,
361,665,
383,695,
405,721,
426,749,
447,777,
468,804,
490,826,
509,843,
526,859,
541,877,
556,891,
569,900,
581,904,
590,906,
596,908,
602,909,
608,905,
609,896,
608,885,
606,876,
603,866,
600,853,
594,834,
585,815,
576,798,
568,782,
560,763,
551,741,
540,719,
528,700,
516,684,
505,666,
494,646,
482,627,
470,610,
458,597,
447,583,
435,566,
423,550,
410,536,
399,526,
389,514,
378,501,
367,488,
355,477,
346,471,
338,465,
328,456,
320,449,
311,443,
304,443,
299,443,
294,441,
291,437,
286,438,
284,443,
283,448,
283,450,
283,452,
282,456,
283,464,
285,473,
288,479,
290,483,
293,489,
296,498,
301,507,
305,514,
308,519,
312,525,
315,534,
319,543,
325,548,
329,550,
332,551,
335,555,
339,560,
342,561,
345,559,
346,557,
347,558,
348,559,
351,557,
352,552,
351,546,
351,543,
350,541,
350,535,
350,527,
347,519,
344,513,
342,510,
339,503,
337,493,
334,483,
330,475,
326,470,
322,465,
319,455,
315,444,
311,437,
306,432,
304,427,
300,418,
296,409,
291,402,
287,398,
284,394,
281,387,
277,380,
272,375,
269,374,
266,371,
263,367,
260,362,
256,359,
252,359,
250,361,
247,358,
245,354,
241,353,
239,354,
237,355,
236,354,
235,351,
233,350,
232,352,
231,354,
231,353,
231,351,
229,350,
227,352,
227,355,
229,355,
228,353,
228,352,
227,354,
228,358,
228,360,
230,359,
230,359,
230,362,
231,366,
234,369,
235,367,
235,367,
236,368,
237,373,
240,374,
241,372,
242,372,
241,373,
242,376,
244,378,
246,376,
246,373,
246,373,
245,376,
247,378,
248,377,
248,375,
247,375,
247,378,
249,378,
249,376,
249,374,
247,373,
246,375,
245,376,
246,374,
246,371,
245,369,
244,370,
245,371,
245,369,
244,365,
241,362,
240,363,
239,362,
240,359,
240,355,
238,352,
237,353,
236,353,
236,352,
234,347,
233,343,
231,343,
229,345,
228,343,
227,340,
224,338,
221,339,
222,342,
221,344,
222,346,
221,349,
222,357,
225,368,
228,381,
233,392,
238,406,
243,426,
251,449,
260,472,
270,493,
281,516,
294,543,
310,572,
326,601,
344,626,
362,651,
380,676,
398,702,
417,727,
436,748,
453,765,
470,782,
487,801,
504,817,
519,828,
533,836,
543,842,
553,850,
563,854,
570,853,
575,847,
579,842,
580,837,
581,830,
580,818,
578,804,
573,790,
567,777,
561,764,
554,748,
546,728,
536,709,
525,693,
514,678,
504,659,
494,639,
481,620,
469,605,
457,591,
447,576,
435,558,
421,542,
409,529,
396,519,
385,506,
373,491,
361,478,
349,469,
340,462,
332,454,
323,444,
313,435,
305,431,
298,429,
292,425,
287,421,
280,417,
275,417,
271,422,
270,424,
269,424,
267,426,
265,431,
267,439,
269,445,
272,450,
276,455,
278,463,
281,473,
287,483,
291,488,
295,494,
299,502,
304,512,
310,521,
315,526,
319,530,
323,535,
327,542,
331,548,
336,550,
341,550,
345,551,
347,554,
352,556,
355,554,
357,551,
358,548,
358,547,
360,545,
360,540,
360,533,
358,526,
355,522,
354,518,
353,512,
351,502,
347,495,
343,490,
339,486,
337,479,
333,469,
328,460,
322,455,
319,449,
315,443,
312,434,
308,425,
303,419,
299,415,
295,410,
292,403,
288,396,
283,392,
278,390,
275,387,
271,381,
266,374,
261,371,
257,372,
254,372,
250,368,
247,365,
243,364,
240,367,
239,368,
238,366,
236,364,
234,364,
232,368,
232,369,
232,369,
232,368,
230,369,
230,374,
230,377,
231,377,
231,376,
230,377,
230,381,
231,385,
232,386,
232,384,
232,384,
233,387,
236,390,
239,391,
240,390,
240,389,
241,392,
242,396,
245,398,
246,395,
248,395,
249,397,
251,401,
253,403,
254,402,
255,402,
255,405,
256,409,
259,412,
260,411,
262,412,
263,416,
265,421,
268,424,
269,425,
272,425,
272,428,
275,433,
278,436,
280,437,
282,436,
283,437,
285,442,
288,443,
289,443,
290,441,
289,441,
290,443,
291,444,
292,440,
291,437,
289,436,
288,437,
287,438,
287,437,
285,436,
283,438,
284,444,
285,452,
286,457,
288,464,
291,474,
295,489,
301,505,
309,520,
318,535,
326,552,
337,572,
348,595,
361,613,
374,631,
388,649,
401,670,
416,691,
430,710,
444,724,
457,739,
469,755,
482,770,
496,781,
508,788,
517,793,
526,800,
533,806,
540,808,
545,805,
546,801,
547,798,
548,794,
549,788,
548,776,
547,764,
543,752,
538,742,
534,729,
528,714,
519,697,
511,683,
501,671,
492,658,
481,640,
469,622,
456,607,
444,596,
433,584,
422,568,
411,553,
398,541,
388,531,
380,521,
371,508,
361,496,
351,485,
341,480,
333,473,
325,464,
318,456,
308,449,
302,447,
297,446,
292,443,
287,440,
283,439,
279,443,
277,447,
276,450,
276,451,
276,455,
277,463,
279,472,
283,479,
287,484,
290,491,
294,500,
299,512,
305,519,
310,525,
315,531,
320,540,
326,551,
334,558,
339,561,
343,565,
346,570,
350,577,
354,579,
358,579,
361,577,
362,578,
364,581,
365,580,
366,575,
366,569,
366,567,
365,565,
365,562,
364,554,
362,546,
359,539,
356,534,
354,528,
352,518,
347,508,
342,499,
338,494,
335,489,
331,480,
328,471,
323,463,
318,458,
316,452,
313,444,
308,435,
304,428,
298,424,
294,421,
290,415,
285,407,
280,401,
275,399,
272,396,
269,392,
264,386,
259,382,
255,381,
253,381,
252,379,
249,375,
246,372,
243,373,
242,375,
242,374,
240,371,
239,370,
237,372,
236,374,
236,375,
237,373,
236,372,
235,375,
235,379,
236,380,
235,380,
235,379,
234,382,
234,386,
235,387,
236,386,
235,384,
235,386,
236,389,
237,391,
237,390,
238,388,
238,389,
238,391,
239,392,
239,390,
238,388,
237,389,
237,391,
238,393,
238,391,
238,387,
237,387,
236,388,
237,389,
236,388,
237,385,
236,385,
235,386,
236,387,
238,385,
238,381,
237,380,
238,381,
238,382,
239,379,
239,375,
239,373,
239,374,
239,375,
238,373,
237,368,
234,366,
232,367,
232,367,
231,367,
231,364,
229,363,
227,366,
227,372,
227,376,
229,379,
230,386,
234,398,
238,413,
245,429,
252,444,
261,463,
270,486,
283,512,
298,538,
314,561,
331,586,
348,613,
367,644,
386,672,
407,697,
426,720,
446,745,
466,771,
486,795,
506,813,
523,829,
538,845,
553,863,
568,875,
581,883,
591,888,
599,892,
605,897,
611,898,
616,894,
618,887,
618,880,
616,873,
613,865,
610,852,
605,836,
597,820,
588,807,
580,792,
570,774,
559,754,
547,735,
535,720,
523,705,
511,687,
499,667,
486,650,
472,637,
460,624,
448,609,
435,594,
423,579,
410,569,
399,559,
390,547,
379,533,
368,519,
357,509,
349,503,
340,495,
332,486,
324,477,
316,473,
310,471,
306,468,
302,464,
298,461,
295,461,
293,465,
292,468,
293,469,
292,471,
292,477,
294,486,
297,493,
300,498,
302,502,
304,508,
308,519,
313,527,
318,533,
323,538,
327,545,
333,554,
339,561,
344,565,
350,568,
353,571,
358,577,
362,582,
366,583,
369,582,
371,583,
373,586,
376,587,
379,586,
380,582,
379,579,
378,578,
378,578,
378,573,
377,567,
375,561,
372,558,
371,555,
369,550,
366,543,
363,535,
359,529,
356,525,
354,519,
351,509,
346,501,
342,497,
339,494,
335,489,
331,481,
326,474,
322,470,
319,469,
317,464,
313,458,
310,452,
306,449,
302,449,
300,447,
297,442,
294,436,
291,435,
288,436,
287,434,
286,430,
283,425,
280,424,
278,425,
276,425,
275,422,
273,418,
270,416,
269,419,
269,419,
269,417,
268,414,
265,413,
264,415,
264,417,
263,417,
262,414,
261,414,
260,416,
260,418,
260,416,
260,413,
260,413,
259,415,
260,418,
260,417,
261,415,
260,413,
260,415,
261,416,
261,416,
262,413,
262,410,
261,412,
261,414,
264,414,
264,411,
264,409,
262,410,
264,412,
263,412,
263,409,
263,406,
261,406,
261,408,
261,407,
261,403,
259,400,
258,399,
258,400,
257,399,
257,395,
257,390,
255,389,
253,390,
253,389,
253,385,
252,381,
251,381,
250,383,
250,385,
250,384,
248,384,
248,388,
248,396,
250,405,
252,413,
256,422,
260,436,
267,455,
277,475,
287,493,
299,513,
311,536,
327,563,
344,591,
362,616,
379,640,
397,666,
416,695,
435,723,
455,748,
473,768,
489,789,
505,811,
521,832,
535,849,
547,859,
558,870,
567,881,
576,890,
584,894,
592,894,
596,892,
599,892,
601,890,
602,884,
602,873,
599,861,
593,850,
588,840,
582,826,
574,808,
565,790,
556,774,
547,760,
537,744,
527,724,
515,705,
504,689,
493,676,
483,661,
472,644,
461,627,
449,613,
437,604,
426,592,
415,578,
404,565,
392,554,
381,547,
372,538,
362,528,
353,517,
343,509,
335,506,
327,503,
321,497,
315,491,
309,488,
305,489,
303,490,
300,489,
298,487,
296,489,
296,495,
297,501,
299,505,
300,507,
300,511,
302,520,
305,528,
309,535,
313,539,
317,544,
321,552,
326,560,
331,565,
336,567,
340,570,
344,576,
350,583,
355,587,
359,588,
362,588,
364,591,
367,595,
370,595,
372,593,
373,589,
373,589,
373,589,
374,585,
375,580,
374,574,
371,569,
369,566,
368,561,
366,553,
363,544,
359,537,
356,533,
353,528,
350,518,
346,509,
341,501,
337,496,
334,490,
330,481,
326,470,
320,463,
317,459,
312,453,
309,445,
305,435,
301,428,
296,425,
293,421,
290,416,
287,409,
282,404,
278,403,
274,402,
271,397,
267,391,
263,388,
258,387,
255,386,
252,384,
249,379,
245,375,
242,376,
239,377,
237,376,
235,372,
232,369,
231,369,
230,371,
229,370,
228,367,
226,364,
225,365,
225,367,
226,367,
226,364,
226,362,
225,363,
226,364,
226,365,
226,364,
226,362,
225,363,
226,367,
227,369,
229,367,
230,365,
230,366,
231,369,
233,371,
234,370,
234,368,
236,369,
236,373,
238,374,
239,373,
240,372,
241,373,
242,376,
243,378,
244,376,
243,374,
242,373,
241,375,
243,376,
242,375,
241,372,
240,371,
239,373,
239,374,
238,372,
237,369,
236,369,
235,370,
235,372,
236,371,
234,370,
233,372,
232,376,
234,382,
235,387,
239,391,
240,399,
243,411,
248,427,
256,441,
263,457,
271,474,
281,497,
293,521,
307,545,
321,568,
335,590,
351,617,
368,645,
386,670,
405,691,
422,712,
438,735,
455,758,
472,778,
487,793,
502,804,
515,817,
527,830,
538,839,
547,843,
554,843,
559,844,
563,845,
567,842,
570,835,
570,824,
569,814,
567,806,
565,795,
562,780,
557,763,
549,747,
541,733,
533,719,
524,701,
513,682,
502,664,
491,651,
481,635,
469,619,
459,600,
447,585,
437,573,
425,562,
415,549,
404,534,
393,522,
382,512,
372,504,
361,494,
351,481,
341,472,
330,466,
321,462,
313,456,
305,449,
297,443,
291,442,
286,443,
282,442,
278,440,
274,439,
272,442,
269,448,
270,451,
269,454,
270,457,
272,464,
274,473,
278,480,
282,485,
284,490,
288,498,
292,507,
298,516,
303,520,
308,524,
313,531,
317,541,
324,547,
329,551,
333,553,
337,557,
341,562,
346,565,
351,565,
354,563,
357,563,
359,566,
363,566,
366,563,
368,557,
367,554,
367,551,
368,548,
367,542,
365,533,
361,526,
358,523,
356,517,
354,510,
350,500,
345,492,
341,488,
339,483,
336,477,
332,467,
328,459,
322,454,
319,451,
316,444,
313,436,
310,429,
305,425,
302,422,
299,417,
296,410,
292,405,
288,404,
285,404,
282,402,
279,397,
275,393,
272,392,
270,393,
267,392,
265,389,
261,386,
258,386,
256,388,
254,388,
253,386,
250,384,
247,385,
245,387,
244,389,
244,387,
243,385,
241,386,
241,390,
241,392,
240,391,
239,389,
238,390,
238,394,
239,397,
239,396,
240,393,
239,394,
239,397,
242,399,
243,399,
244,397,
245,396,
246,398,
247,400,
249,399,
250,397,
249,395,
249,398,
250,400,
251,400,
250,397,
250,395,
249,397,
249,399,
249,397,
248,394,
247,391,
246,391,
247,391,
247,390,
246,387,
246,384,
245,384,
245,386,
246,384,
246,381,
246,378,
246,378,
246,380,
247,381,
249,379,
249,378,
249,382,
250,389,
252,396,
255,402,
257,409,
259,421,
264,438,
271,453,
278,468,
286,484,
294,504,
304,528,
317,552,
330,574,
344,595,
357,619,
372,645,
388,670,
404,691,
419,709,
433,730,
447,751,
461,770,
474,784,
486,794,
496,804,
505,815,
515,823,
523,827,
528,825,
532,823,
535,822,
537,819,
538,811,
538,800,
537,788,
533,777,
530,768,
527,754,
521,737,
513,720,
506,706,
499,692,
493,675,
485,657,
475,638,
465,624,
455,611,
446,596,
436,579,
425,563,
413,550,
402,539,
392,526,
383,511,
372,497,
361,486,
351,478,
343,470,
334,459,
325,449,
316,442,
309,439,
302,435,
297,430,
291,424,
286,423,
282,426,
280,427,
279,427,
276,427,
275,431,
273,437,
275,445,
275,449,
276,454,
277,460,
279,470,
282,480,
286,487,
289,492,
291,500,
295,510,
299,520,
304,526,
309,531,
312,536,
317,544,
320,551,
325,554,
