PPG A0,PPG A1,event_code
423,693,
426,701,
427,707,
428,711,
428,718,
429,723,
429,726,
430,727,
429,727,
426,729,
424,730,
423,729,
421,726,
418,724,
414,722,
411,722,
410,718,
408,713,
405,707,
401,703,
399,702,
398,697,
396,691,
394,685,
391,680,
390,678,
389,673,
386,667,
384,661,
381,656,
378,653,
377,650,
375,643,
372,635,
370,630,
367,626,
365,622,
364,615,
362,607,
358,602,
356,598,
354,594,
352,588,
351,581,
347,576,
345,572,
344,569,
343,564,
341,559,
338,555,
336,553,
334,552,
333,550,
333,546,
332,544,
331,545,
333,546,
334,544,
334,543,
334,543,
334,546,
335,548,
336,549,
338,549,
338,549,
338,551,
339,554,
341,554,
341,553,
342,553,
340,554,
340,556,
340,556,
341,554,
339,552,
338,552,
338,554,
338,553,
339,551,
339,547,
338,547,
337,546,
338,545,
338,541,
337,537,
337,534,
336,533,
337,531,
337,527,
337,523,
335,521,
336,520,
336,518,
337,513,
336,510,
335,507,
333,507,
332,506,
332,503,
331,500,
330,498,
329,498,
329,497,
330,493,
329,489,
326,487,
326,488,
324,485,
325,483,
325,479,
323,476,
322,475,
322,474,
323,471,
323,467,
321,464,
321,464,
321,463,
320,461,
320,457,
318,454,
318,453,
317,452,
318,450,
317,447,
315,444,
314,443,
313,445,
314,443,
313,439,
311,436,
308,436,
308,435,
307,434,
307,429,
306,427,
304,427,
304,427,
304,426,
305,422,
304,419,
303,418,
302,419,
302,418,
303,415,
302,413,
302,413,
302,415,
303,414,
303,412,
303,409,
301,408,
301,411,
302,411,
302,410,
302,409,
301,410,
302,413,
304,415,
305,416,
307,417,
308,419,
310,425,
313,431,
317,436,
319,441,
321,449,
324,460,
329,472,
335,482,
340,493,
345,505,
350,522,
357,537,
363,551,
369,566,
374,580,
379,598,
385,614,
392,629,
397,641,
401,654,
405,669,
410,682,
415,694,
418,702,
420,711,
422,721,
424,731,
427,738,
428,742,
428,745,
428,751,
428,756,
430,759,
430,759,
428,758,
426,759,
425,760,
424,758,
422,754,
421,751,
418,749,
417,748,
416,745,
414,739,
412,735,
410,731,
408,729,
407,725,
406,719,
403,713,
400,709,
396,706,
395,702,
393,695,
390,689,
387,684,
384,680,
383,675,
381,668,
379,659,
375,653,
372,648,
370,643,
368,636,
365,627,
362,620,
360,614,
359,609,
357,602,
355,594,
352,588,
350,584,
349,579,
349,574,
347,567,
345,563,
342,560,
342,559,
341,556,
340,551,
338,547,
338,547,
338,547,
339,545,
340,541,
339,539,
340,540,
340,542,
341,542,
342,540,
341,539,
341,539,
341,541,
341,542,
341,541,
341,540,
340,540,
340,542,
340,542,
340,540,
340,537,
340,536,
339,536,
339,535,
340,533,
340,530,
339,530,
340,530,
341,530,
341,527,
341,525,
340,524,
339,524,
341,523,
341,520,
338,518,
336,516,
335,517,
334,516,
334,512,
333,509,
331,507,
329,507,
329,505,
330,502,
328,497,
327,494,
326,493,
326,491,
326,487,
325,482,
323,478,
323,477,
323,476,
324,472,
323,467,
323,463,
322,460,
323,458,
324,453,
324,448,
322,444,
321,444,
322,443,
322,441,
322,438,
320,434,
319,434,
320,434,
320,432,
320,428,
320,425,
318,424,
319,425,
320,424,
320,420,
319,418,
319,418,
319,419,
321,419,
323,417,
323,415,
323,415,
324,416,
325,416,
327,412,
327,409,
326,409,
327,410,
329,411,
330,409,
330,406,
329,406,
328,406,
328,406,
328,404,
327,402,
326,402,
325,402,
325,402,
325,401,
323,399,
322,397,
321,397,
322,398,
323,398,
323,398,
323,399,
323,403,
325,408,
327,412,
330,415,
330,419,
333,426,
336,436,
342,446,
346,454,
350,464,
355,478,
361,494,
367,510,
373,526,
378,542,
383,559,
389,578,
397,598,
402,613,
407,628,
411,646,
417,663,
421,680,
426,692,
429,705,
432,718,
436,731,
439,743,
440,751,
442,758,
443,765,
446,773,
447,780,
449,784,
449,784,
449,787,
450,791,
451,793,
451,791,
450,789,
449,788,
448,789,
447,788,
446,785,
444,781,
442,777,
441,775,
440,773,
439,770,
437,764,
434,759,
433,756,
432,753,
430,749,
427,741,
424,735,
421,731,
418,728,
416,722,
413,715,
410,707,
407,702,
405,697,
404,690,
400,681,
396,673,
392,665,
390,658,
386,651,
382,641,
377,631,
371,625,
367,619,
363,613,
357,605,
352,597,
347,593,
342,588,
339,585,
334,579,
331,573,
328,570,
326,567,
324,565,
323,559,
322,556,
322,554,
321,553,
322,552,
322,549,
323,546,
323,544,
325,544,
326,543,
328,542,
329,539,
330,537,
332,538,
334,538,
336,536,
337,535,
337,534,
338,535,
339,534,
340,533,
340,530,
340,530,
340,532,
341,532,
340,530,
340,529,
340,527,
340,528,
340,527,
339,525,
338,521,
337,519,
337,518,
336,517,
336,514,
335,509,
334,507,
333,506,
333,503,
334,501,
333,496,
332,493,
331,492,
330,489,
330,486,
329,481,
328,477,
326,475,
326,473,
325,471,
323,465,
321,462,
320,462,
319,461,
318,459,
317,456,
316,453,
314,452,
314,451,
313,449,
313,445,
311,441,
310,440,
309,439,
308,436,
307,432,
305,428,
303,427,
302,425,
302,423,
302,420,
302,418,
301,417,
302,417,
301,416,
302,413,
301,409,
300,408,
301,407,
302,406,
302,403,
302,400,
302,399,
301,399,
301,398,
302,395,
302,393,
302,392,
302,393,
302,394,
302,393,
301,391,
300,391,
300,392,
300,392,
301,392,
300,390,
300,390,
300,391,
300,391,
300,391,
300,387,
300,385,
300,386,
300,388,
301,389,
300,386,
299,382,
299,382,
298,383,
298,384,
297,381,
297,377,
296,377,
296,379,
296,380,
295,376,
295,371,
294,371,
293,372,
294,373,
293,370,
293,366,
292,366,
292,369,
293,373,
293,374,
294,374,
295,379,
297,387,
301,398,
305,405,
309,411,
313,423,
319,437,
326,452,
333,466,
339,478,
345,492,
352,510,
359,531,
367,549,
374,564,
381,581,
387,600,
395,620,
400,637,
406,650,
411,664,
415,680,
420,695,
424,709,
427,717,
429,726,
432,737,
433,748,
436,757,
437,760,
438,763,
438,768,
439,773,
439,776,
439,774,
438,773,
437,775,
436,776,
436,777,
434,772,
433,768,
431,768,
430,767,
429,766,
426,761,
424,755,
422,752,
419,750,
418,750,
415,743,
414,737,
410,734,
408,730,
406,728,
403,722,
399,714,
397,709,
394,704,
392,700,
390,693,
386,681,
383,674,
380,667,
378,661,
374,651,
371,639,
367,631,
365,623,
363,619,
360,611,
357,600,
354,593,
352,588,
350,584,
349,578,
346,570,
344,565,
341,561,
341,560,
339,557,
339,550,
338,546,
338,543,
338,542,
338,540,
338,534,
337,532,
336,532,
337,531,
338,530,
337,526,
337,526,
338,526,
339,528,
340,530,
341,527,
340,526,
340,528,
341,530,
343,531,
343,529,
342,526,
342,527,
342,527,
342,528,
342,524,
340,520,
339,518,
339,518,
339,516,
339,512,
338,508,
336,507,
337,507,
335,507,
335,504,
334,499,
332,496,
332,495,
333,493,
332,489,
331,484,
328,480,
328,479,
328,477,
327,473,
325,467,
323,464,
323,462,
321,462,
321,457,
319,452,
317,448,
316,448,
314,446,
314,444,
312,438,
311,435,
310,434,
310,433,
310,431,
310,427,
308,423,
307,423,
307,423,
306,420,
305,415,
303,411,
302,411,
301,411,
301,409,
300,404,
297,402,
296,402,
296,403,
295,401,
295,397,
294,393,
292,393,
292,394,
291,392,
290,389,
290,386,
290,386,
290,388,
289,387,
288,384,
287,380,
288,381,
287,382,
288,382,
289,379,
288,376,
288,377,
289,376,
289,377,
290,376,
290,373,
289,373,
290,373,
290,373,
290,373,
290,370,
289,369,
288,371,
289,371,
289,368,
288,366,
287,364,
287,365,
287,365,
288,363,
286,361,
286,360,
286,361,
287,362,
288,360,
288,356,
288,357,
287,360,
287,360,
287,357,
285,354,
284,354,
283,356,
282,356,
283,353,
282,351,
282,350,
282,352,
283,351,
283,349,
283,347,
282,346,
282,347,
282,349,
282,346,
282,344,
281,344,
280,346,
281,348,
283,345,
282,344,
281,343,
280,346,
281,347,
282,346,
283,343,
282,341,
281,343,
282,344,
282,343,
283,341,
282,340,
282,342,
282,344,
283,343,
283,341,
282,341,
281,343,
282,346,
284,346,
284,343,
283,342,
283,345,
284,347,
285,347,
286,344,
284,342,
283,343,
284,345,
285,344,
285,342,
286,339,
286,340,
286,344,
287,345,
287,342,
287,340,
285,341,
285,343,
286,343,
286,341,
285,339,
284,340,
284,344,
286,345,
286,344,
287,344,
288,347,
289,352,
292,358,
295,362,
298,366,
300,374,
303,385,
310,397,
314,406,
319,417,
324,430,
330,446,
337,462,
345,476,
353,489,
359,505,
366,525,
373,543,
379,560,
385,574,
390,590,
395,608,
401,625,
406,638,
410,648,
413,658,
416,670,
420,681,
423,688,
425,691,
425,695,
426,702,
427,707,
429,710,
429,710,
428,710,
425,711,
424,713,
423,711,
420,706,
417,701,
413,699,
411,697,
409,693,
407,686,
404,681,
401,678,
400,675,
398,671,
397,665,
393,659,
390,656,
388,654,
386,650,
384,644,
380,638,
376,634,
374,631,
372,625,
370,619,
367,611,
365,605,
361,601,
359,595,
357,588,
353,579,
350,574,
347,569,
345,564,
343,557,
341,549,
338,545,
336,541,
335,538,
335,530,
333,525,
331,519,
329,518,
329,516,
329,512,
327,507,
325,506,
324,506,
324,508,
324,507,
323,505,
322,504,
321,505,
321,506,
322,505,
324,504,
323,502,
322,504,
323,505,
324,504,
325,502,
323,500,
323,501,
325,503,
326,503,
327,500,
326,499,
327,500,
327,502,
329,502,
329,499,
329,496,
328,497,
328,499,
328,499,
329,495,
328,492,
327,492,
326,493,
327,492,
327,489,
325,486,
324,484,
323,485,
323,483,
323,480,
322,477,
321,475,
320,477,
321,476,
320,472,
320,469,
318,467,
318,466,
318,465,
318,463,
316,459,
314,458,
313,459,
313,459,
312,455,
311,450,
309,448,
308,448,
307,447,
307,443,
305,439,
304,436,
302,436,
302,436,
302,433,
301,428,
300,426,
299,426,
299,425,
299,422,
299,418,
298,416,
297,416,
297,416,
297,414,
297,409,
296,406,
295,406,
295,406,
296,404,
296,400,
295,397,
294,398,
295,399,
295,398,
295,395,
295,393,
294,394,
294,396,
295,398,
295,396,
294,395,
294,396,
295,399,
297,400,
299,398,
299,395,
299,396,
300,399,
302,399,
303,397,
302,393,
301,394,
300,396,
301,397,
301,394,
301,391,
299,390,
299,392,
300,392,
299,389,
298,385,
296,384,
295,387,
294,388,
293,386,
293,382,
290,381,
288,384,
288,386,
289,385,
288,380,
287,379,
287,381,
287,383,
287,381,
288,377,
287,376,
287,379,
289,382,
292,383,
294,382,
295,383,
296,390,
301,398,
305,404,
310,407,
313,413,
317,425,
322,438,
328,448,
333,456,
338,465,
342,480,
347,496,
354,509,
361,519,
365,529,
369,543,
374,559,
380,571,
386,579,
389,588,
392,600,
396,612,
400,621,
403,627,
404,632,
405,639,
406,646,
408,651,
409,653,
408,654,
408,656,
408,660,
408,662,
407,661,
405,658,
403,657,
400,658,
399,657,
398,654,
396,647,
392,644,
391,644,
390,642,
388,637,
385,630,
383,625,
380,623,
378,621,
377,615,
375,608,
372,604,
369,602,
368,600,
366,595,
363,589,
359,584,
356,582,
355,580,
353,574,
350,567,
346,561,
343,558,
340,555,
338,549,
336,540,
332,533,
329,529,
327,525,
325,518,
323,511,
320,505,
317,502,
316,501,
315,496,
315,490,
314,485,
313,484,
312,485,
312,484,
313,480,
313,477,
313,478,
313,480,
315,480,
317,478,
317,476,
318,477,
319,480,
321,480,
322,478,
321,476,
321,477,
322,479,
324,481,
325,479,
324,478,
324,478,
324,481,
324,482,
325,480,
324,478,
323,477,
323,479,
323,480,
324,478,
323,476,
322,475,
321,477,
322,477,
321,475,
320,470,
319,469,
318,471,
319,471,
320,468,
319,465,
318,463,
316,464,
316,464,
316,462,
316,457,
314,455,
313,456,
312,457,
312,454,
312,450,
311,448,
310,449,
310,450,
309,448,
309,444,
307,442,
305,442,
306,443,
306,442,
306,438,
305,436,
303,436,
304,437,
305,437,
304,433,
303,431,
303,432,
302,433,
302,432,
302,429,
301,427,
300,427,
301,429,
302,429,
302,426,
301,423,
300,423,
300,426,
300,425,
301,423,
300,419,
299,419,
298,420,
299,421,
299,418,
298,415,
297,414,
296,416,
297,415,
297,412,
297,408,
296,407,
295,409,
296,409,
296,407,
297,403,
295,403,
295,405,
296,406,
297,404,
297,401,
296,399,
296,401,
297,402,
298,400,
298,397,
298,395,
298,395,
298,396,
298,394,
299,389,
299,388,
298,389,
298,391,
299,389,
299,386,
299,384,
299,385,
299,387,
300,385,
300,383,
299,380,
299,382,
301,385,
303,387,
305,386,
306,387,
307,391,
309,398,
312,403,
316,406,
318,411,
322,420,
326,430,
331,441,
336,448,
340,456,
344,468,
349,483,
356,495,
361,505,
367,516,
372,530,
377,545,
383,558,
388,570,
392,580,
395,592,
399,606,
404,615,
408,624,
411,629,
414,637,
415,646,
418,654,
420,657,
420,659,
420,663,
420,668,
420,672,
421,672,
422,670,
419,669,
417,671,
417,672,
416,670,
415,665,
414,662,
411,661,
410,660,
409,657,
407,652,
404,647,
400,646,
398,644,
396,640,
394,634,
390,629,
387,628,
384,627,
382,623,
380,617,
376,612,
372,610,
370,608,
368,603,
367,596,
364,589,
361,586,
359,582,
357,576,
355,569,
352,562,
348,557,
346,554,
344,550,
341,542,
338,535,
334,531,
333,529,
332,525,
331,518,
329,512,
328,509,
327,508,
327,506,
326,503,
325,499,
322,499,
322,500,
321,501,
321,499,
320,495,
319,494,
319,496,
320,497,
322,495,
322,493,
321,493,
321,496,
323,498,
324,498,
325,497,
325,496,
325,499,
327,501,
328,500,
329,497,
329,496,
328,499,
329,501,
329,500,
329,498,
328,497,
327,498,
326,499,
327,498,
327,494,
326,491,
325,491,
325,491,
325,489,
325,485,
323,482,
322,481,
321,481,
321,480,
321,475,
319,471,
317,470,
317,470,
318,467,
317,463,
316,459,
315,458,
314,459,
314,456,
313,452,
311,447,
309,447,
309,447,
309,445,
309,441,
309,436,
307,435,
306,436,
307,434,
307,429,
305,424,
303,422,
302,422,
301,421,
301,417,
299,412,
297,410,
295,411,
295,410,
296,407,
295,404,
293,402,
293,403,
293,403,
294,401,
295,398,
294,398,
294,399,
295,400,
295,398,
294,395,
293,395,
293,397,
292,398,
292,397,
292,393,
289,392,
289,392,
288,394,
288,392,
288,389,
287,388,
286,390,
287,392,
288,391,
287,388,
286,387,
285,389,
285,391,
287,391,
287,388,
288,386,
287,388,
287,388,
288,388,
289,384,
289,382,
289,384,
290,384,
291,385,
292,382,
291,380,
291,380,
291,381,
293,380,
293,377,
293,375,
292,374,
293,376,
293,376,
293,372,
293,370,
292,369,
292,371,
293,372,
293,370,
293,368,
291,368,
291,371,
291,372,
293,370,
293,369,
292,369,
292,373,
293,373,
293,373,
292,371,
291,371,
290,375,
291,376,
291,375,
291,372,
290,372,
290,374,
290,375,
290,373,
289,371,
287,369,
285,370,
286,372,
286,370,
286,368,
285,366,
284,367,
285,369,
285,368,
286,365,
285,364,
285,365,
285,368,
287,367,
288,366,
288,366,
288,368,
290,374,
293,377,
296,378,
298,381,
301,388,
305,397,
311,404,
316,411,
321,420,
326,431,
331,445,
338,457,
346,467,
352,478,
359,491,
365,508,
372,522,
379,534,
384,545,
389,559,
394,574,
399,587,
405,595,
408,603,
411,612,
414,623,
417,632,
419,637,
420,640,
420,645,
420,652,
422,657,
424,659,
423,659,
421,660,
420,664,
420,666,
418,666,
417,662,
415,660,
413,661,
411,660,
410,657,
408,652,
405,647,
402,647,
400,645,
398,642,
395,635,
393,631,
390,630,
388,629,
388,626,
386,621,
384,616,
382,616,
380,614,
378,611,
376,605,
374,599,
370,598,
369,598,
367,594,
366,588,
363,582,
359,579,
356,577,
354,572,
352,565,
349,559,
346,555,
344,552,
341,549,
340,542,
337,536,
335,532,
334,531,
333,528,
333,523,
331,518,
329,516,
328,517,
328,514,
328,511,
327,508,
326,507,
326,509,
328,509,
328,507,
327,504,
326,504,
326,506,
326,508,
326,506,
325,504,
323,503,
322,504,
323,505,
322,504,
323,501,
323,499,
322,501,
324,502,
325,501,
326,498,
325,495,
325,496,
325,497,
326,495,
326,492,
325,490,
323,490,
323,490,
323,488,
322,485,
322,481,
320,481,
320,482,
320,479,
320,475,
319,472,
319,472,
318,472,
319,470,
318,466,
317,463,
316,462,
315,463,
316,462,
315,457,
315,454,
314,454,
314,454,
314,454,
314,451,
312,448,
311,447,
311,448,
311,448,
310,444,
310,442,
308,441,
307,442,
307,442,
307,439,
306,435,
304,434,
302,435,
303,435,
302,430,
301,426,
299,424,
298,425,
298,425,
298,422,
296,418,
295,416,
294,417,
294,417,
294,414,
293,411,
292,409,
292,409,
291,410,
292,407,
291,403,
289,401,
288,402,
288,403,
288,401,
289,398,
288,397,
288,398,
289,400,
290,399,
290,395,
289,393,
288,395,
288,397,
288,396,
288,393,
287,392,
287,394,
288,396,
290,396,
291,394,
291,392,
291,395,
291,396,
293,396,
295,394,
294,392,
294,392,
294,394,
294,394,
294,391,
293,388,
293,388,
293,390,
293,390,
294,388,
294,385,
293,384,
293,387,
293,385,
294,383,
293,381,
293,381,
292,383,
292,384,
293,381,
292,379,
291,378,
291,380,
290,382,
291,380,
291,378,
290,378,
290,381,
290,382,
291,381,
290,380,
290,380,
289,382,
289,384,
289,383,
290,380,
288,378,
289,380,
290,382,
290,382,
290,378,
289,376,
288,378,
289,379,
289,378,
289,375,
288,373,
288,376,
288,378,
289,378,
290,376,
289,375,
290,377,
292,379,
294,380,
295,380,
296,381,
297,386,
301,392,
305,397,
309,399,
311,404,
315,413,
319,423,
325,433,
330,440,
337,447,
342,459,
348,472,
355,484,
361,493,
366,502,
371,513,
376,527,
383,538,
388,546,
393,553,
397,563,
400,574,
405,583,
408,589,
410,592,
411,598,
412,606,
414,611,
415,614,
416,615,
414,617,
413,622,
414,625,
413,625,
411,623,
408,623,
405,625,
404,626,
403,624,
401,620,
398,616,
395,617,
394,617,
392,614,
391,608,
387,604,
385,604,
383,602,
382,598,
380,591,
378,586,
375,585,
374,584,
372,581,
371,575,
369,570,
367,569,
366,570,
364,567,
361,561,
359,555,
355,553,
353,552,
352,548,
350,542,
348,535,
345,533,
344,533,
343,530,
341,524,
339,516,
337,513,
335,513,
334,512,
334,506,
332,502,
329,501,
328,503,
327,503,
326,500,
326,497,
325,496,
325,499,
325,499,
325,497,
325,494,
323,493,
323,498,
323,500,
325,499,
325,496,
324,496,
324,500,
325,502,
326,501,
326,499,
325,498,
325,501,
325,503,
327,501,
327,497,
327,495,
327,497,
328,498,
330,497,
330,493,
330,490,
328,492,
328,494,
330,493,
329,489,
329,486,
329,487,
329,489,
328,488,
329,484,
329,482,
327,483,
326,484,
326,483,
326,479,
325,476,
324,476,
324,478,
324,477,
324,473,
322,470,
320,470,
319,471,
319,469,
319,465,
317,460,
315,458,
314,460,
314,458,
313,454,
312,450,
310,448,
308,450,
308,448,
309,445,
308,440,
307,439,
307,440,
306,440,
306,436,
306,433,
304,431,
303,433,
303,433,
304,430,
303,427,
301,426,
301,426,
300,426,
300,424,
300,420,
298,418,
297,419,
298,418,
299,415,
299,412,
299,409,
298,410,
299,411,
299,408,
299,406,
298,405,
297,406,
297,407,
297,407,
297,405,
297,404,
295,406,
295,408,
296,407,
295,406,
295,404,
294,405,
294,407,
295,407,
296,405,
295,404,
295,405,
295,408,
297,408,
296,405,
295,404,
295,405,
295,406,
296,406,
295,404,
295,401,
293,402,
293,403,
294,404,
295,402,
294,400,
294,401,
296,403,
297,402,
297,400,
297,399,
296,400,
295,401,
294,401,
294,400,
293,398,
292,397,
292,398,
293,399,
293,397,
292,395,
292,394,
292,395,
292,395,
292,394,
293,392,
292,391,
291,391,
291,391,
292,389,
292,387,
291,385,
289,387,
291,387,
291,386,
291,384,
290,383,
291,385,
291,387,
293,387,
295,387,
295,388,
296,392,
298,397,
302,401,
306,405,
310,411,
314,420,
320,428,
325,437,
330,446,
335,455,
341,467,
347,478,
353,489,
358,498,
363,508,
368,518,
373,531,
379,540,
383,549,
387,557,
390,566,
393,576,
397,583,
400,589,
402,594,
404,600,
406,607,
408,611,
410,614,
410,615,
410,617,
410,620,
411,621,
411,619,
411,618,
409,617,
408,618,
406,617,
405,616,
403,612,
399,610,
396,610,
396,609,
395,606,
392,602,
389,598,
386,597,
384,594,
381,590,
378,586,
375,582,
371,582,
370,581,
368,577,
366,573,
362,570,
360,569,
359,567,
358,563,
357,559,
354,554,
352,553,
350,550,
349,547,
348,542,
345,538,
342,536,
341,535,
340,532,
338,528,
336,524,
334,523,
332,521,
332,519,
331,516,
329,513,
326,512,
325,512,
326,511,
325,508,
324,505,
322,505,
322,505,
323,505,
323,503,
324,502,
323,502,
324,502,
326,502,
327,501,
326,498,
326,498,
326,500,
328,500,
329,498,
329,497,
330,498,
330,500,
331,501,
332,501,
332,499,
331,499,
330,501,
331,502,
332,500,
331,499,
330,499,
329,501,
330,501,
330,500,
330,497,
330,495,
329,496,
329,496,
329,494,
328,492,
327,491,
326,492,
326,492,
325,491,
323,488,
322,486,
320,487,
319,486,
319,483,
317,481,
316,478,
314,477,
314,477,
314,475,
313,472,
312,469,
311,469,
311,468,
312,466,
311,462,
310,459,
310,458,
309,459,
310,457,
309,455,
310,452,
309,452,
309,452,
310,451,
310,448,
310,446,
308,445,
307,445,
308,444,
308,441,
308,439,
307,440,
307,439,
306,439,
305,438,
305,435,
303,434,
302,434,
302,434,
302,431,
301,430,
299,428,
298,429,
298,428,
298,427,
297,424,
296,424,
295,424,
296,424,
296,423,
295,421,
294,421,
294,422,
295,423,
296,422,
297,420,
297,419,
297,420,
297,421,
297,419,
297,419,
295,417,
295,418,
295,420,
296,419,
297,417,
296,418,
296,418,
297,420,
297,421,
297,420,
297,419,
297,420,
298,421,
299,421,
299,419,
299,418,
298,418,
298,419,
298,419,
298,418,
297,417,
295,417,
297,418,
297,418,
297,415,
296,413,
295,412,
294,412,
294,411,
294,409,
293,406,
292,405,
292,406,
293,407,
293,405,
294,404,
294,405,
295,408,
297,409,
298,409,
300,409,
300,412,
302,417,
305,422,
309,426,
312,430,
315,436,
319,445,
324,454,
329,462,
333,470,
337,480,
342,492,
349,504,
356,515,
362,526,
366,537,
372,550,
378,562,
383,571,
389,580,
392,588,
396,598,
401,608,
405,614,
409,619,
410,624,
411,631,
412,637,
413,640,
414,641,
413,644,
411,646,
411,649,
410,650,
410,649,
407,648,
405,649,
404,650,
401,649,
399,645,
395,642,
392,640,
390,639,
388,636,
386,632,
383,627,
380,624,
378,622,
376,619,
375,615,
371,610,
368,608,
367,606,
366,604,
364,600,
362,596,
358,593,
356,592,
354,590,
352,584,
351,580,
348,576,
346,575,
344,571,
343,567,
341,562,
338,558,
337,556,
336,554,
335,549,
333,545,
331,541,
329,540,
329,539,
329,537,
329,534,
327,533,
326,533,
326,533,
327,531,
327,529,
327,528,
327,530,
328,532,
329,532,
330,532,
330,531,
330,534,
331,537,
332,538,
333,538,
333,539,
332,542,
334,544,
335,547,
336,547,
337,548,
336,551,
336,554,
337,556,
337,555,
336,554,
335,556,
334,557,
334,557,
335,556,
333,555,
332,554,
332,555,
332,554,
332,552,
332,549,
331,548,
329,547,
330,545,
329,541,
329,538,
327,536,
326,536,
326,533,
326,529,
325,525,
325,522,
324,521,
323,520,
324,517,
323,514,
321,512,
321,512,
320,512,
321,510,
320,507,
317,505,
316,506,
316,505,
316,503,
315,501,
313,498,
311,497,
312,496,
312,494,
311,490,
310,488,
309,487,
309,486,
309,485,
309,481,
307,479,
305,478,
305,478,
304,475,
304,471,
303,469,
301,468,
301,469,
301,467,
300,465,
298,463,
297,463,
297,462,
298,461,
297,459,
296,457,
294,457,
294,458,
294,457,
295,455,
293,453,
292,453,
292,454,
293,454,
294,451,
295,450,
295,450,
295,451,
296,452,
297,449,
298,448,
297,448,
298,449,
298,449,
299,447,
299,444,
298,445,
298,445,
299,444,
300,443,
300,441,
299,439,
299,440,
300,440,
301,439,
301,437,
302,437,
301,437,
301,438,
302,436,
302,434,
300,432,
301,434,
301,436,
301,435,
302,434,
302,434,
302,436,
302,438,
304,439,
305,440,
306,442,
307,447,
310,453,
314,458,
316,463,
319,469,
322,479,
326,491,
331,501,
337,511,
341,522,
346,536,
352,552,
359,566,
367,575,
371,586,
376,600,
383,615,
390,627,
396,636,
401,645,
404,656,
409,669,
415,679,
420,686,
422,691,
424,699,
426,708,
430,715,
432,717,
433,718,
432,722,
432,728,
432,732,
433,730,
432,727,
429,727,
427,729,
425,728,
425,725,
423,720,
419,716,
415,718,
414,718,
413,715,
409,710,
406,707,
402,708,
401,708,
401,704,
399,699,
396,696,
393,697,
392,697,
391,694,
390,689,
386,685,
382,685,
381,685,
379,680,
378,675,
374,670,
370,669,
368,667,
367,663,
365,655,
361,649,
357,646,
355,644,
355,639,
352,632,
349,625,
346,622,
344,621,
344,617,
342,611,
340,605,
337,604,
336,605,
336,604,
336,599,
335,596,
333,596,
333,598,
335,599,
335,596,
335,594,
334,594,
334,597,
336,600,
339,599,
339,597,
339,598,
339,602,
342,605,
345,602,
346,600,
343,600,
344,604,
345,607,
346,605,
346,603,
345,602,
344,605,
345,607,
346,606,
346,602,
344,601,
342,604,
343,606,
343,602,
342,598,
341,595,
338,597,
339,599,
339,597,
338,592,
336,589,
334,589,
333,590,
334,589,
333,583,
332,580,
330,580,
329,581,
330,579,
329,574,
326,569,
324,568,
324,569,
324,566,
324,560,
322,555,
319,554,
319,554,
319,551,
319,545,
317,539,
316,539,
316,540,
317,538,
317,532,
315,527,
313,525,
313,527,
313,524,
312,519,
310,514,
307,514,
307,516,
307,515,
308,512,
306,507,
304,506,
303,507,
305,507,
306,503,
305,498,
303,496,
303,498,
304,497,
306,493,
306,488,
304,486,
303,487,
304,487,
304,484,
304,479,
302,477,
300,479,
301,479,
302,477,
302,472,
300,471,
299,472,
300,474,
302,472,
301,468,
300,465,
299,468,
300,470,
302,469,
303,465,
302,462,
301,465,
302,466,
303,465,
304,462,
303,460,
301,462,
302,465,
303,464,
303,461,
302,459,
300,461,
300,465,
302,465,
302,462,
300,460,
299,463,
299,467,
300,468,
301,466,
300,463,
299,465,
298,468,
300,469,
301,465,
301,461,
299,461,
299,462,
301,462,
301,459,
301,455,
299,455,
298,459,
300,460,
302,458,
302,454,
300,453,
298,457,
299,459,
300,457,
300,455,
298,456,
297,460,
299,462,
301,461,
300,459,
298,460,
297,465,
299,471,
302,473,
304,476,
304,480,
305,491,
310,502,
316,510,
322,517,
326,527,
331,544,
337,560,
345,574,
352,586,
357,600,
364,619,
371,638,
379,654,
388,666,
393,681,
398,699,
404,717,
412,731,
418,741,
422,751,
425,764,
430,777,
435,787,
440,793,
441,797,
441,804,
444,813,
446,817,
447,817,
446,817,
444,819,
443,823,
443,825,
442,822,
439,817,
436,818,
432,820,
432,819,
431,815,
428,808,
424,805,
421,805,
419,803,
418,795,
415,787,
412,783,
408,783,
408,781,
406,775,
403,768,
400,763,
397,762,
397,761,
397,754,
395,746,
390,742,
388,740,
387,738,
387,732,
385,724,
382,717,
379,715,
378,712,
376,705,
374,696,
371,688,
367,684,
366,682,
365,675,
362,666,
359,658,
356,655,
354,654,
353,650,
351,642,
348,636,
345,635,
345,634,
346,631,
346,625,
344,620,
343,620,
343,622,
344,623,
346,619,
344,616,
342,617,
343,619,
345,620,
347,617,
346,615,
345,617,
345,621,
347,623,
349,621,
349,619,
348,621,
348,624,
349,626,
350,625,
349,622,
348,624,
347,628,
348,630,
350,628,
349,625,
347,625,
346,628,
346,631,
347,628,
347,624,
345,624,
345,626,
346,627,
348,624,
348,621,
346,618,
345,620,
344,620,
345,617,
344,612,
342,609,
340,610,
340,610,
340,607,
340,601,
339,598,
336,598,
337,598,
337,594,
337,589,
335,584,
332,584,
333,583,
333,580,
333,572,
331,567,
329,566,
328,566,
329,562,
328,554,
326,548,
324,547,
323,548,
325,546,
324,540,
322,534,
320,533,
319,535,
320,534,
321,527,
319,521,
316,519,
315,521,
315,520,
315,513,
313,507,
310,506,
309,509,
310,509,
311,504,
310,498,
309,497,
308,501,
309,502,
311,497,
310,491,
308,489,
307,491,
308,492,
310,486,
310,479,
310,476,
310,479,
311,480,
314,476,
314,469,
312,467,
311,471,
312,475,
313,473,
313,469,
311,468,
310,474,
310,477,
312,476,
312,471,
309,470,
308,475,
309,479,
310,477,
310,472,
309,469,
308,472,
309,475,
312,474,
313,467,
311,463,
310,466,
310,469,
312,468,
313,462,
312,459,
312,460,
312,464,
314,463,
315,458,
314,454,
312,456,
313,459,
315,460,
315,455,
313,451,
313,452,
313,457,
313,457,
314,452,
313,447,
310,447,
310,451,
311,451,
309,447,
308,442,
307,441,
305,444,
305,444,
305,439,
303,434,
301,432,
298,434,
298,434,
298,430,
297,425,
295,424,
294,428,
295,431,
297,432,
297,431,
298,433,
299,443,
303,453,
309,460,
314,465,
316,476,
321,491,
328,509,
337,523,
343,536,
350,552,
357,575,
365,597,
376,616,
384,632,
390,649,
396,672,
403,694,
411,712,
418,725,
423,739,
426,756,
431,774,
436,787,
440,795,
441,802,
443,814,
444,825,
448,832,
451,834,
450,835,
448,841,
449,847,
450,850,
450,847,
448,844,
445,844,
443,847,
442,846,
441,840,
438,833,
434,829,
431,826,
429,823,
426,816,
422,809,
419,804,
415,801,
412,796,
410,789,
407,781,
403,775,
400,771,
397,766,
394,759,
390,752,
386,746,
383,743,
381,739,
380,732,
377,724,
374,717,
371,712,
369,707,
367,700,
365,691,
362,684,
359,679,
357,675,
356,667,
354,659,
351,652,
350,647,
348,644,
348,638,
347,630,
345,623,
342,621,
342,619,
343,615,
342,610,
341,605,
340,604,
341,604,
341,601,
341,597,
341,594,
340,594,
340,596,
341,595,
340,593,
340,591,
340,592,
342,593,
343,593,
345,591,
345,590,
344,590,
345,592,
346,593,
346,591,
346,588,
345,589,
346,590,
346,589,
346,587,
346,585,
344,585,
344,586,
345,587,
345,584,
345,581,
343,580,
343,580,
342,579,
342,576,
342,573,
340,571,
340,571,
340,570,
340,567,
339,563,
337,559,
336,559,
335,557,
334,553,
333,549,
331,546,
329,546,
329,545,
329,542,
327,537,
326,534,
325,534,
324,534,
325,531,
325,527,
323,522,
322,522,
322,521,
321,519,
322,515,
320,512,
318,512,
319,513,
319,512,
319,510,
319,508,
318,507,
319,509,
319,507,
320,503,
318,500,
317,499,
318,499,
318,498,
318,494,
318,490,
318,488,
318,488,
319,485,
320,482,
319,477,
318,475,
319,474,
320,472,
321,468,
321,464,
322,462,
321,462,
322,461,
323,460,
323,458,
322,457,
322,457,
322,456,
323,456,
322,454,
321,451,
320,450,
319,451,
319,451,
318,449,
318,445,
318,445,
318,445,
319,447,
319,446,
318,443,
317,442,
319,443,
320,444,
320,443,
320,441,
319,442,
319,442,
319,441,
319,441,
318,439,
316,438,
316,437,
316,435,
316,434,
315,432,
314,431,
314,430,
315,430,
315,429,
315,427,
315,425,
316,424,
315,422,
316,419,
316,415,
316,412,
316,410,
316,408,
316,404,
315,400,
313,397,
312,395,
312,392,
311,389,
309,386,
308,384,
307,384,
307,383,
307,381,
307,380,
306,380,
306,383,
306,385,
307,388,
308,392,
308,398,
310,406,
313,416,
317,427,
320,438,
323,451,
327,466,
332,483,
338,500,
343,517,
348,536,
354,556,
361,577,
367,596,
374,615,
379,634,
384,653,
391,671,
398,688,
405,703,
410,714,
415,723,
420,730,
424,744,
428,755,
430,759,
432,766,
435,771,
437,778,
437,784,
437,786,
436,789,
437,790,
436,794,
436,796,
434,791,
432,788,
430,784,
429,776,
427,773,
424,771,
421,768,
419,766,
417,762,
415,756,
412,750,
410,745,
407,740,
406,734,
404,728,
401,721,
397,716,
395,710,
393,703,
392,697,
389,690,
386,683,
383,676,
382,669,
379,662,
377,655,
373,648,
370,640,
368,631,
366,622,
363,614,
359,607,
356,600,
355,592,
352,585,
350,579,
347,574,
345,569,
344,564,
344,558,
343,554,
341,552,
340,550,
340,549,
340,547,
340,545,
339,543,
339,542,
340,540,
340,538,
339,536,
338,535,
337,534,
337,532,
337,531,
337,530,
338,529,
338,529,
339,528,
339,526,
340,523,
340,523,
338,524,
340,523,
341,522,
341,522,
340,521,
339,522,
339,522,
339,520,
339,519,
338,520,
336,521,
336,520,
335,518,
335,515,
333,514,
333,514,
332,512,
331,508,
331,505,
330,505,
328,504,
327,503,
326,500,
326,496,
325,494,
323,493,
323,492,
323,488,
322,485,
321,482,
320,481,
319,480,
319,477,
319,475,
318,472,
317,469,
316,466,
315,463,
315,462,
315,460,
313,456,
313,453,
313,450,
313,446,
312,443,
310,440,
310,437,
310,434,
310,431,
309,428,
308,426,
307,425,
306,423,
306,421,
306,418,
304,415,
303,413,
302,409,
302,406,
301,403,
301,399,
300,397,
300,394,
300,390,
300,387,
299,383,
298,383,
298,381,
298,378,
298,377,
296,374,
296,374,
296,372,
297,369,
297,367,
296,363,
296,364,
296,363,
297,360,
297,359,
298,356,
297,358,
297,357,
298,356,
298,355,
298,353,
297,355,
297,357,
297,355,
297,354,
296,353,
295,354,
295,356,
295,355,
295,354,
294,353,
293,356,
292,358,
293,357,
292,358,
292,358,
289,359,
289,361,
290,361,
290,360,
289,360,
289,360,
288,363,
288,364,
289,363,
287,362,
286,362,
285,364,
285,365,
286,364,
286,363,
284,363,
284,364,
285,364,
285,364,
285,362,
285,362,
284,362,
285,363,
286,362,
286,359,
285,359,
285,358,
286,359,
286,359,
287,358,
287,358,
287,360,
289,364,
292,366,
294,370,
296,375,
299,382,
303,391,
309,400,
313,409,
319,421,
324,435,
329,450,
337,465,
344,480,
350,495,
357,513,
363,531,
370,547,
377,562,
383,577,
388,591,
393,605,
399,618,
404,629,
409,639,
411,648,
415,656,
418,664,
420,671,
422,676,
422,679,
421,682,
420,685,
419,685,
417,686,
415,686,
414,685,
411,683,
411,681,
408,678,
405,675,
402,672,
399,669,
397,664,
394,660,
390,656,
388,652,
385,648,
383,643,
380,637,
376,632,
373,626,
371,620,
370,614,
368,608,
366,603,
364,597,
362,591,
360,586,
359,581,
357,576,
354,572,
353,566,
352,561,
351,555,
349,549,
348,543,
347,538,
346,532,
345,527,
343,522,
341,517,
340,512,
339,508,
339,504,
336,501,
334,498,
333,496,
333,494,
333,492,
334,492,
333,492,
333,492,
335,492,
335,491,
335,491,
334,491,
335,492,
335,493,
336,494,
336,494,
335,495,
334,497,
335,497,
337,497,
338,497,
337,497,
336,498,
338,498,
339,499,
340,498,
339,497,
337,497,
337,496,
339,495,
339,494,
338,491,
337,490,
337,488,
338,487,
339,485,
338,483,
336,480,
336,480,
337,477,
337,475,
335,473,
334,472,
333,470,
334,468,
334,465,
332,463,
329,461,
328,460,
329,458,
329,456,
326,454,
324,453,
324,452,
324,450,
325,447,
323,445,
321,442,
320,441,
320,437,
320,433,
320,430,
318,428,
318,425,
318,423,
318,421,
318,419,
316,416,
316,413,
317,411,
317,407,
317,405,
317,403,
315,401,
316,399,
315,397,
315,394,
314,391,
313,388,
313,387,
313,384,
312,382,
309,380,
309,379,
309,377,
308,377,
309,375,
307,372,
308,370,
308,370,
308,369,
307,369,
306,368,
305,367,
304,367,
303,366,
303,366,
301,366,
300,366,
300,366,
301,366,
302,365,
301,364,
299,364,
299,364,
300,363,
302,362,
300,361,
299,361,
299,361,
300,361,
301,361,
301,360,
299,360,
299,359,
300,359,
302,358,
300,357,
298,356,
297,356,
298,356,
299,354,
298,352,
296,351,
295,350,
296,348,
297,347,
296,345,
294,344,
293,344,
293,343,
295,342,
294,340,
291,339,
290,338,
290,337,
292,336,
292,335,
291,336,
291,338,
294,340,
297,342,
299,346,
300,352,
302,359,
306,368,
311,377,
316,387,
319,398,
324,411,
330,425,
337,439,
345,453,
348,468,
354,484,
360,499,
368,514,
374,529,
379,544,
384,559,
389,574,
395,587,
400,599,
403,610,
405,620,
408,629,
412,635,
415,642,
415,646,
414,652,
414,655,
415,658,
415,659,
413,659,
411,659,
409,658,
409,657,
407,654,
405,651,
401,647,
399,645,
398,641,
397,635,
394,631,
389,626,
385,622,
384,617,
383,611,
380,606,
376,601,
373,597,
371,592,
372,587,
369,582,
366,578,
364,573,
363,569,
362,565,
360,560,
357,556,
354,552,
353,548,
353,543,
351,538,
346,532,
344,527,
343,522,
342,516,
339,509,
335,503,
332,498,
329,493,
328,490,
327,485,
323,481,
320,479,
321,477,
321,473,
321,471,
321,468,
319,466,
317,464,
318,464,
318,463,
316,463,
314,462,
314,462,
315,462,
317,462,
315,462,
314,463,
316,463,
318,464,
320,465,
320,464,
320,464,
320,465,
322,466,
323,466,
322,465,
320,464,
320,465,
321,466,
322,466,
321,465,
318,463,
317,462,
317,463,
317,462,
316,460,
313,458,
312,456,
312,455,
313,453,
313,450,
309,447,
308,446,
308,446,
309,444,
308,441,
305,440,
303,439,
304,437,
304,436,
304,434,
301,431,
299,429,
299,426,
300,423,
299,421,
297,418,
296,417,
296,415,
297,413,
296,411,
295,408,
294,407,
294,406,
294,405,
294,404,
293,402,
291,402,
290,400,
291,399,
291,397,
289,395,
287,394,
287,392,
288,390,
289,389,
288,387,
286,386,
287,385,
289,384,
289,383,
287,382,
286,382,
285,382,
286,381,
286,380,
287,380,
285,380,
284,379,
284,380,
285,378,
284,378,
283,377,
282,376,
282,375,
283,374,
283,372,
281,372,
280,373,
282,373,
283,372,
283,371,
281,369,
281,369,
281,368,
283,367,
283,366,
282,366,
281,366,
282,366,
283,365,
284,363,
283,362,
282,362,
282,362,
283,360,
284,359,
283,358,
281,358,
282,359,
283,360,
284,358,
282,358,
281,358,
282,358,
284,357,
285,356,
284,356,
283,356,
283,357,
285,358,
286,357,
285,357,
284,357,
284,358,
286,357,
287,324,
285,0,
283,0,
283,0,
284,0,
284,0,
283,0,
282,0,
281,0,
283,0,
284,0,
284,0,
283,0,
283,0,
284,0,
287,0,
288,0,
289,0,
290,0,
292,0,
296,0,
299,0,
302,0,
304,0,
307,0,
313,0,
320,0,
324,0,
327,0,
332,0,
339,0,
347,0,
352,0,
357,0,
361,0,
368,0,
374,0,
380,0,
384,0,
388,0,
392,0,
397,0,
401,0,
403,0,
404,0,
406,0,
408,0,
410,0,
410,0,
408,0,
408,0,
408,0,
410,0,
408,0,
406,0,
403,0,
403,0,
402,0,
399,0,
396,0,
392,0,
390,0,
390,0,
389,0,
385,0,
381,0,
379,0,
378,0,
376,0,
374,0,
371,0,
368,0,
367,0,
366,0,
364,0,
360,0,
356,0,
355,0,
354,0,
352,0,
348,0,
345,0,
344,0,
343,0,
342,0,
339,0,
336,0,
332,0,
333,0,
333,0,
331,0,
329,0,
327,0,
327,0,
328,0,
327,0,
326,0,
325,0,
326,0,
327,0,
328,0,
326,0,
327,0,
328,0,
329,0,
329,0,
328,0,
327,0,
326,0,
327,0,
329,0,
329,0,
328,0,
329,0,
331,0,
333,0,
334,0,
332,0,
333,0,
334,0,
335,0,
336,0,
335,0,
333,0,
334,0,
335,0,
334,0,
333,0,
332,0,
331,0,
332,0,
333,165,
332,669,
331,992,
329,992,
329,992,
330,991,
329,992,
327,992,
327,992,
328,992,
328,992,
327,992,
325,993,
324,992,
325,992,
325,992,
325,992,
322,992,
319,992,
319,992,
320,992,
321,992,
318,992,
317,992,
317,992,
318,992,
317,992,
316,992,
314,992,
315,991,
316,992,
315,991,
313,992,
312,992,
312,992,
314,993,
313,992,
311,992,
308,993,
308,992,
308,992,
308,992,
306,992,
303,992,
303,992,
303,992,
304,992,
302,992,
301,993,
301,992,
302,993,
303,992,
302,991,
299,992,
300,992,
301,991,
302,991,
301,993,
300,992,
300,991,
301,992,
302,992,
302,992,
302,993,
301,992,
301,992,
301,991,
299,991,
298,992,
297,992,
297,993,
298,991,
298,992,
296,992,
295,992,
295,992,
296,991,
297,992,
295,992,
295,992,
296,992,
296,992,
295,991,
292,992,
291,992,
292,991,
292,992,
291,992,
290,992,
288,992,
289,991,
290,992,
292,992,
291,992,
290,991,
292,992,
295,992,
298,992,
299,992,
301,992,
304,992,
310,991,
314,992,
318,991,
322,992,
329,992,
336,992,
344,992,
350,992,
355,992,
362,992,
370,992,
376,992,
381,956,
386,914,
391,874,
398,837,
404,800,
406,765,
409,734,
411,708,
415,681,
417,656,
417,633,
416,613,
415,596,
416,580,
417,566,
415,552,
412,540,
411,533,
410,525,
410,519,
407,513,
403,509,
400,508,
398,507,
396,506,
393,505,
388,505,
384,508,
382,512,
380,514,
377,516,
372,518,
369,523,
367,527,
366,530,
363,531,
359,533,
356,536,
355,538,
354,538,
351,537,
347,536,
344,537,
342,537,
341,535,
340,532,
336,530,
333,528,
331,527,
331,524,
330,520,
326,516,
434,514,
475,511,
500,507,
509,503,
499,500,
482,498,
484,499,
497,497,
503,495,
493,492,
477,492,
477,493,
490,493,
498,491,
490,490,
476,490,
476,492,
489,493,
499,493,
492,492,
479,492,
478,494,
489,495,
500,494,
494,494,
483,494,
480,496,
490,497,
501,497,
497,496,
486,497,
482,498,
491,498,
502,497,
498,496,
487,495,
481,497,
489,498,
500,496,
497,495,
486,493,
478,493,
484,492,
493,489,
489,486,
479,483,
468,482,
473,482,
482,478,
479,475,
468,471,
456,470,
460,469,
469,467,
467,464,
457,461,
446,460,
450,459,
459,458,
459,454,
450,452,
438,452,
442,452,
451,450,
452,447,
443,444,
430,443,
307,442,
307,441,
339,438,
306,435,
306,434,
306,433,
307,431,
309,429,
308,425,
305,424,
305,424,
306,424,
306,422,
305,420,
303,418,
302,418,
303,418,
304,416,
303,414,
302,412,
302,413,
303,414,
303,413,
303,411,
301,410,
301,411,
301,410,
302,409,
301,408,
297,407,
297,408,
298,409,
300,408,
298,406,
297,406,
295,407,
296,408,
297,408,
296,408,
296,408,
295,410,
296,411,
297,411,
297,410,
294,410,
294,411,
294,411,
296,411,
297,410,
295,409,
295,410,
296,411,
298,411,
298,411,
298,409,
298,411,
298,412,
300,412,
300,411,
299,410,
298,411,
298,412,
299,412,
301,411,
299,409,
297,410,
299,410,
300,410,
301,410,
300,408,
299,409,
300,411,
303,414,
304,416,
305,419,
306,424,
309,431,
314,437,
318,443,
321,450,
324,459,
329,469,
336,479,
342,489,
348,499,
354,511,
360,524,
367,537,
375,550,
380,561,
386,573,
392,586,
400,598,
408,609,
413,618,
417,627,
421,636,
426,644,
431,650,
433,655,
434,659,
433,665,
435,669,
437,672,
437,674,
435,675,
434,677,
433,678,
433,677,
431,676,
428,672,
424,671,
422,671,
422,668,
420,665,
415,661,
411,658,
408,655,
406,652,
404,646,
399,641,
395,639,
392,637,
391,634,
389,630,
385,625,
381,622,
379,619,
377,615,
375,610,
371,604,
367,601,
364,598,
363,594,
360,589,
357,585,
353,581,
350,578,
349,575,
348,571,
345,566,
341,563,
339,560,
338,557,
337,553,
336,548,
333,544,
331,542,
331,540,
331,536,
331,533,
330,531,
330,532,
332,532,
332,531,
332,530,
330,529,
330,530,
331,531,
332,531,
334,530,
334,530,
334,533,
336,534,
338,535,
339,535,
338,535,
337,536,
338,538,
340,538,
340,538,
339,539,
338,541,
338,543,
340,543,
341,542,
339,540,
337,541,
338,540,
340,539,
341,537,
340,535,
339,535,
338,535,
339,533,
339,531,
338,528,
337,527,
336,526,
336,524,
336,521,
334,519,
332,517,
331,516,
331,515,
331,512,
329,510,
328,509,
327,509,
327,507,
328,505,
327,504,
325,502,
324,502,
324,501,
324,498,
322,495,
320,493,
318,491,
318,490,
319,488,
318,485,
316,483,
316,481,
316,479,
316,476,
315,474,
313,471,
311,470,
311,468,
312,466,
311,463,
309,460,
308,460,
307,458,
308,455,
306,453,
304,451,
302,451,
302,452,
303,450,
303,448,
302,447,
300,447,
300,447,
302,446,
302,444,
301,444,
299,443,
300,443,
301,442,
303,440,
302,439,
301,439,
300,440,
302,439,
302,437,
301,436,
299,437,
299,437,
300,437,
301,435,
300,434,
299,435,
299,435,
299,436,
301,433,
299,432,
298,432,
298,433,
300,433,
300,432,
300,431,
299,430,
299,431,
300,430,
301,429,
301,426,
300,425,
300,426,
301,425,
302,423,
301,421,
300,420,
300,422,
301,423,
303,421,
302,421,
300,419,
299,421,
300,421,
301,420,
300,419,
299,418,
297,420,
298,422,
299,421,
299,421,
299,421,
299,425,
302,428,
307,431,
309,435,
311,439,
313,446,
318,455,
323,463,
329,472,
334,482,
338,494,
345,509,
354,522,
362,536,
368,550,
374,566,
383,582,
393,597,
401,611,
408,624,
414,637,
420,652,
428,664,
434,674,
439,683,
441,693,
445,703,
449,712,
452,718,
452,723,
452,728,
453,734,
455,738,
455,741,
454,741,
451,743,
449,745,
449,746,
447,744,
446,741,
441,739,
439,738,
437,737,
434,733,
429,729,
424,724,
418,724,
416,721,
414,716,
410,711,
405,707,
402,706,
400,703,
398,698,
396,693,
392,689,
389,687,
388,685,
387,680,
385,675,
381,670,
377,668,
375,666,
374,662,
371,656,
367,651,
362,648,
361,643,
359,638,
358,631,
355,624,
352,619,
350,615,
351,610,
351,603,
349,597,
347,595,
347,593,
348,591,
348,586,
346,583,
344,582,
344,583,
345,582,
346,579,
345,577,
343,577,
343,577,
346,577,
347,575,
346,574,
343,575,
344,577,
345,579,
346,579,
346,579,
345,579,
344,582,
346,583,
347,583,
348,583,
346,582,
344,584,
347,585,
348,584,
348,582,
347,580,
346,581,
346,581,
348,579,
346,576,
345,575,
344,576,
344,576,
344,574,
343,571,
341,569,
338,568,
339,567,
339,565,
337,561,
335,557,
334,556,
333,555,
334,552,
333,548,
330,545,
329,543,
329,543,
330,540,
330,536,
329,532,
326,531,
325,529,
326,527,
324,522,
322,518,
319,518,
320,516,
321,514,
321,510,
319,507,
317,506,
316,505,
317,503,
316,499,
315,495,
314,494,
314,494,
315,492,
315,489,
314,485,
311,484,
310,483,
311,482,
311,479,
309,476,
306,475,
304,476,
304,475,
305,472,
304,470,
302,469,
301,469,
301,470,
302,468,
301,465,
298,464,
297,464,
298,464,
300,462,
300,461,
298,459,
298,460,
299,460,
301,458,
302,455,
301,453,
299,454,
300,454,
300,452,
300,450,
298,449,
297,449,
298,450,
300,448,
301,445,
300,443,
298,444,
299,445,
301,444,
301,443,
301,442,
299,443,
300,444,
301,443,
301,441,
299,439,
298,440,
297,442,
298,441,
299,439,
298,438,
296,439,
297,440,
299,440,
299,438,
299,438,
298,437,
298,438,
299,438,
300,436,
300,434,
298,434,
299,435,
300,435,
301,432,
301,430,
300,430,
299,431,
301,431,
301,429,
300,427,
298,427,
297,428,
298,427,
299,424,
299,422,
297,422,
297,423,
298,423,
300,422,
299,420,
298,419,
296,420,
297,420,
299,419,
300,418,
299,419,
299,423,
302,427,
305,430,
308,434,
309,438,
312,447,
317,456,
324,466,
331,475,
335,487,
342,502,
350,518,
358,534,
365,548,
371,564,
376,583,
383,603,
391,620,
398,635,
403,651,
407,668,
414,684,
421,698,
427,710,
430,721,
431,733,
434,744,
439,753,
442,759,
442,764,
442,770,
442,775,
444,778,
444,778,
442,777,
439,777,
437,779,
437,778,
436,775,
432,771,
428,768,
425,767,
424,764,
422,758,
419,753,
415,749,
412,747,
409,744,
406,739,
403,733,
398,729,
395,727,
393,724,
392,719,
390,714,
387,709,
384,708,
383,704,
381,700,
379,693,
375,689,
371,686,
370,682,
369,676,
367,670,
363,665,
360,661,
358,657,
357,651,
354,644,
351,636,
347,631,
346,625,
345,619,
344,612,
341,607,
338,604,
337,601,
338,597,
338,593,
335,591,
333,590,
333,590,
333,589,
334,587,
333,585,
331,586,
332,589,
334,590,
335,589,
333,588,
332,589,
333,592,
335,593,
336,592,
336,591,
334,592,
335,594,
336,595,
337,594,
336,593,
335,593,
334,596,
335,598,
336,597,
335,596,
334,595,
334,596,
335,595,
336,593,
336,590,
335,588,
335,587,
335,586,
336,584,
336,579,
334,577,
334,576,
334,576,
336,573,
335,569,
333,566,
330,565,
331,565,
332,562,
332,557,
330,552,
328,550,
328,546,
328,541,
328,535,
327,530,
325,527,
325,522,
325,517,
325,512,
323,508,
320,507,
321,506,
321,505,
320,503,
318,502,
316,503,
315,505,
316,506,
315,504,
312,502,
310,503,
308,504,
309,503,
309,501,
307,498,
305,497,
305,498,
305,496,
305,493,
303,490,
301,488,
300,488,
301,485,
302,482,
300,478,
297,476,
296,475,
297,474,
297,469,
296,466,
294,463,
293,462,
294,459,
296,456,
296,451,
295,448,
295,449,
296,448,
298,445,
298,442,
298,440,
298,441,
300,440,
301,437,
302,434,
300,433,
298,434,
300,434,
300,433,
300,430,
298,429,
297,430,
297,429,
299,428,
297,424,
295,422,
293,424,
293,425,
293,424,
292,421,
290,420,
289,421,
289,422,
289,420,
290,418,
288,416,
287,418,
288,422,
289,422,
290,421,
290,420,
290,421,
291,423,
293,423,
295,421,
293,419,
293,421,
293,422,
295,421,
295,419,
294,416,
292,417,
292,418,
294,419,
295,418,
295,415,
294,414,
293,416,
295,416,
296,414,
296,411,
294,409,
292,410,
293,409,
293,406,
293,403,
290,402,
290,404,
290,404,
291,402,
290,400,
289,399,
289,401,
290,403,
293,402,
293,401,
293,403,
294,408,
298,413,
302,417,
305,422,
307,429,
310,438,
315,450,
321,461,
326,472,
329,485,
335,502,
343,520,
351,535,
358,550,
363,567,
368,586,
375,606,
382,623,
388,638,
392,653,
397,669,
402,686,
408,700,
411,711,
414,721,
414,734,
417,745,
420,754,
422,759,
422,764,
421,769,
421,775,
422,779,
423,779,
420,778,
417,779,
415,780,
415,779,
414,775,
412,771,
407,767,
405,766,
405,763,
404,757,
401,751,
398,746,
394,742,
393,738,
391,733,
388,727,
384,723,
381,721,
381,718,
380,713,
377,708,
373,703,
371,702,
370,699,
369,694,
367,687,
363,682,
360,681,
359,677,
358,671,
356,664,
353,659,
351,655,
350,651,
350,646,
349,638,
347,633,
344,629,
343,626,
342,621,
341,613,
338,608,
335,509,
334,0,
336,0,
335,0,
333,0,
330,0,
330,0,
331,0,
333,0,
333,0,
333,0,
334,0,
335,0,
338,0,
338,0,
337,0,
338,0,
340,0,
342,0,
342,0,
340,0,
339,0,
340,0,
341,0,
342,0,
341,0,
340,0,
339,0,
341,0,
341,0,
341,0,
339,0,
338,0,
339,0,
340,0,
339,0,
337,0,
335,0,
336,0,
336,0,
336,0,
334,0,
333,0,
333,0,
333,0,
333,0,
331,0,
329,0,
329,0,
330,0,
329,0,
328,0,
326,0,
324,0,
325,0,
325,0,
324,0,
322,0,
320,0,
320,0,
321,0,
320,0,
318,0,
315,0,
315,0,
315,0,
315,0,
314,0,
312,0,
311,0,
312,0,
313,0,
313,0,
310,0,
310,0,
310,0,
310,0,
310,0,
308,0,
307,0,
309,0,
309,0,
308,0,
307,0,
306,0,
306,0,
307,0,
308,0,
306,0,
305,0,
305,0,
307,0,
308,0,
308,0,
307,0,
307,0,
308,0,
311,0,
310,0,
309,0,
308,0,
310,0,
311,0,
311,0,
310,0,
308,0,
309,0,
310,0,
310,0,
308,0,
306,0,
305,0,
305,0,
305,0,
304,0,
302,0,
301,0,
302,0,
303,0,
302,0,
300,0,
299,0,
300,0,
301,0,
301,0,
300,0,
298,0,
299,0,
300,0,
301,0,
299,0,
298,0,
298,0,
301,0,
301,0,
301,0,
299,0,
301,0,
302,0,
305,0,
306,0,
306,0,
308,0,
311,0,
316,0,
320,0,
322,0,
326,0,
331,0,
337,0,
343,0,
347,0,
352,0,
358,0,
365,0,
373,0,
378,0,
382,0,
388,0,
395,0,
401,0,
406,0,
409,0,
412,0,
417,0,
423,0,
426,0,
426,0,
427,0,
428,0,
431,0,
431,0,
431,0,
429,0,
428,0,
429,0,
428,0,
426,0,
422,0,
419,0,
417,0,
416,0,
413,0,
408,0,
405,0,
404,0,
403,0,
401,0,
397,0,
393,0,
391,0,
391,0,
391,0,
388,0,
386,0,
384,0,
384,0,
382,0,
379,0,
375,0,
372,0,
371,0,
370,0,
367,0,
363,0,
359,0,
358,0,
356,0,
355,0,
351,0,
348,0,
347,0,
346,0,
345,0,
342,0,
340,0,
339,0,
339,0,
339,0,
337,0,
335,0,
334,0,
334,0,
334,0,
333,0,
330,0,
329,0,
330,0,
332,0,
333,0,
330,0,
330,0,
330,0,
332,0,
333,0,
332,0,
330,0,
331,0,
333,0,
335,0,
334,0,
333,0,
333,0,
334,0,
335,0,
336,0,
334,0,
334,0,
337,0,
338,0,
339,0,
338,0,
336,0,
337,0,
337,0,
338,0,
336,0,
335,0,
334,0,
336,0,
336,0,
336,0,
333,0,
332,0,
333,0,
333,0,
332,0,
329,0,
328,0,
328,0,
327,0,
327,0,
325,0,
323,0,
322,0,
322,0,
322,0,
319,0,
317,0,
315,0,
315,0,
315,0,
313,40,
311,466,
310,992,
310,992,
310,992,
310,992,
308,992,
308,992,
308,992,
310,993,
309,992,
308,993,
308,992,
308,992,
310,992,
309,992,
307,992,
305,992,
306,992,
306,992,
305,992,
304,993,
303,992,
302,992,
302,992,
302,993,
299,992,
297,992,
298,992,
299,992,
299,992,
297,992,
295,992,
297,992,
297,992,
298,992,
297,992,
296,993,
297,993,
299,992,
300,993,
298,992,
296,992,
296,992,
298,992,
298,993,
296,993,
293,992,
293,993,
294,992,
294,992,
292,992,
291,992,
291,993,
291,993,
293,992,
291,992,
290,992,
291,993,
293,992,
293,992,
293,992,
292,992,
292,993,
294,992,
297,993,
296,993,
295,992,
296,993,
298,992,
300,993,
301,992,
300,992,
300,992,
301,992,
302,993,
301,992,
299,992,
298,992,
299,993,
299,992,
299,992,
297,993,
295,992,
295,992,
296,992,
296,993,
294,992,
294,993,
294,992,
295,992,
295,993,
294,992,
294,992,
296,992,
299,993,
301,992,
303,992,
304,992,
309,992,
314,992,
319,992,
322,992,
326,992,
332,993,
340,993,
347,993,
352,992,
357,993,
364,992,
372,993,
379,993,
385,992,
389,992,
395,992,
401,992,
408,993,
411,993,
413,992,
416,992,
421,992,
424,992,
426,993,
427,992,
427,992,
428,993,
429,992,
428,992,
426,992,
423,993,
423,993,
423,992,
420,992,
415,992,
412,992,
410,992,
409,992,
405,992,
400,992,
398,992,
397,992,
395,993,
392,992,
387,992,
383,992,
382,992,
379,992,
377,992,
373,992,
369,993,
368,992,
367,993,
364,992,
360,992,
357,993,
356,993,
355,992,
353,992,
351,993,
348,993,
347,992,
347,992,
346,993,
343,992,
340,992,
339,992,
338,992,
337,993,
334,992,
331,992,
330,992,
329,993,
329,992,
325,992,
324,992,
323,992,
323,993,
324,992,
323,993,
322,992,
321,992,
322,992,
323,992,
322,992,
321,992,
320,992,
322,992,
323,992,
323,992,
323,993,
323,993,
325,992,
326,992,
326,992,
325,992,
324,993,
325,992,
327,992,
326,993,
324,993,
324,992,
325,992,
326,992,
325,992,
322,992,
321,992,
322,992,
323,993,
323,993,
320,993,
318,992,
318,992,
320,992,
319,992,
318,992,
317,993,
317,993,
318,993,
318,992,
316,992,
315,992,
315,992,
316,992,
315,992,
312,992,
309,992,
308,992,
309,993,
308,992,
306,992,
305,992,
304,992,
304,993,
304,992,
302,992,
300,992,
300,992,
301,992,
301,993,
300,992,
299,993,
298,992,
300,992,
302,992,
300,993,
298,993,
297,993,
299,992,
300,992,
299,992,
297,993,
297,992,
298,992,
300,992,
299,992,
297,992,
297,992,
298,992,
300,992,
300,992,
299,992,
298,992,
300,992,
300,992,
299,992,
297,992,
296,992,
297,992,
299,992,
298,993,
297,992,
296,992,
297,992,
298,992,
298,992,
296,992,
294,992,
295,992,
296,992,
296,993,
294,991,
293,992,
294,992,
297,992,
299,992,
297,992,
295,993,
297,992,
298,992,
299,992,
298,992,
296,992,
297,992,
297,992,
298,992,
297,991,
296,992,
297,992,
297,993,
298,991,
296,991,
294,992,
294,993,
296,992,
296,992,
295,992,
293,991,
293,991,
294,992,
294,944,
292,880,
290,820,
288,767,
289,713,
290,658,
289,603,
287,556,
287,517,
288,480,
289,444,
289,407,
288,379,
289,359,
292,342,
295,324,
298,306,
299,295,
301,292,
305,292,
310,290,
313,289,
317,293,
321,306,
328,320,
335,333,
342,344,
346,360,
351,382,
359,406,
366,427,
372,444,
378,465,
382,490,
387,517,
393,539,
398,557,
401,576,
402,598,
405,621,
410,638,
412,651,
413,661,
413,676,
415,692,
417,704,
419,710,
418,713,
416,721,
416,729,
417,734,
417,732,
413,729,
410,730,
407,733,
405,733,
403,727,
400,720,
396,716,
391,715,
390,713,
389,703,
385,694,
381,690,
376,688,
374,685,
373,678,
370,668,
365,662,
362,660,
360,658,
359,649,
357,638,
354,631,
352,630,
351,626,
351,617,
348,606,
345,598,
342,596,
341,594,
341,587,
339,576,
336,569,
334,566,
335,565,
335,559,
335,550,
331,543,
329,543,
330,543,
330,539,
331,533,
330,528,
328,529,
329,532,
330,532,
331,526,
330,523,
330,525,
329,530,
331,531,
331,529,
330,526,
329,528,
329,534,
331,535,
332,532,
331,529,
330,532,
331,537,
334,539,
335,537,
334,534,
333,534,
333,539,
335,540,
336,537,
335,533,
333,533,
332,537,
333,539,
334,535,
334,531,
331,530,
331,533,
331,533,
332,529,
331,523,
330,520,
329,522,
330,522,
331,519,
329,513,
326,510,
324,513,
326,514,
326,511,
325,505,
322,503,
319,503,
319,505,
319,501,
316,495,
314,489,
311,491,
311,492,
312,488,
311,481,
309,476,
308,478,
309,479,
309,476,
309,470,
307,464,
305,465,
305,468,
306,466,
306,460,
304,455,
303,456,
304,458,
306,455,
307,449,
305,444,
304,442,
304,444,
305,443,
304,437,
303,431,
302,429,
301,431,
303,430,
303,424,
302,418,
300,418,
299,420,
300,420,
301,415,
300,410,
298,409,
298,413,
300,414,
301,410,
301,407,
300,407,
300,411,
301,413,
303,409,
302,406,
300,407,
299,412,
300,415,
302,414,
301,410,
300,408,
299,413,
301,415,
302,413,
303,409,
301,408,
301,412,
302,415,
304,413,
303,408,
301,406,
301,408,
302,411,
303,408,
303,403,
302,401,
301,404,
302,407,
303,406,
303,401,
301,399,
300,402,
301,405,
302,405,
303,401,
302,399,
300,403,
301,409,
304,411,
306,410,
308,412,
309,419,
311,429,
317,437,
321,441,
324,448,
328,461,
333,476,
340,490,
348,499,
353,510,
358,527,
365,548,
372,566,
380,580,
386,592,
390,609,
397,629,
404,644,
410,655,
414,665,
417,676,
420,691,
425,703,
429,709,
431,713,
432,720,
432,731,
434,740,
435,742,
435,742,
433,743,
432,748,
432,752,
432,749,
430,744,
427,741,
424,741,
424,742,
423,738,
421,729,
417,724,
413,723,
411,722,
410,717,
408,707,
404,700,
401,699,
400,699,
399,693,
397,683,
392,676,
389,674,
388,672,
387,667,
385,658,
381,650,
378,648,
376,647,
375,641,
374,631,
369,622,
365,618,
363,616,
361,610,
359,600,
356,590,
352,585,
350,583,
350,578,
347,569,
345,561,
342,558,
341,559,
341,557,
340,550,
339,543,
337,541,
337,543,
338,542,
338,536,
337,531,
334,529,
333,532,
334,533,
336,530,
335,526,
333,525,
331,529,
334,532,
336,530,
335,527,
334,527,
334,530,
335,534,
337,532,
337,528,
336,526,
335,531,
337,534,
338,532,
339,528,
336,526,
335,528,
335,531,
338,528,
337,523,
336,519,
335,521,
335,523,
336,521,
335,515,
333,512,
331,514,
331,517,
333,516,
332,510,
329,505,
326,505,
327,506,
328,504,
328,497,
326,493,
323,492,
324,494,
326,492,
326,486,
324,481,
322,480,
322,482,
323,482,
323,476,
321,471,
319,470,
319,473,
320,473,
322,467,
320,462,
319,461,
317,464,
319,464,
319,459,
317,453,
315,450,
315,452,
315,452,
315,446,
314,441,
311,438,
310,441,
311,441,
312,437,
311,432,
309,430,
308,432,
308,434,
308,431,
307,426,
305,424,
304,428,
304,430,
303,427,
303,422,
301,419,
299,422,
299,425,
301,422,
300,417,
298,414,
297,416,
298,418,
299,415,
299,409,
297,405,
295,407,
294,409,
296,408,
296,402,
294,398,
292,399,
293,402,
294,402,
295,397,
294,394,
292,395,
292,398,
294,398,
294,393,
293,389,
292,391,
292,396,
293,397,
296,393,
294,389,
293,391,
294,395,
296,396,
298,393,
298,389,
295,390,
296,394,
298,396,
299,392,
298,388,
296,388,
295,393,
297,395,
298,392,
298,389,
295,388,
294,393,
296,395,
297,391,
297,388,
295,386,
295,389,
296,392,
299,389,
300,385,
299,386,
300,391,
302,395,
305,397,
307,396,
309,401,
310,411,
315,421,
321,427,
325,432,
329,440,
333,456,
340,472,
348,485,
355,495,
360,508,
365,527,
373,547,
382,564,
389,576,
394,591,
399,609,
406,629,
413,644,
420,655,
423,666,
426,682,
430,697,
436,709,
440,715,
441,721,
441,730,
442,741,
445,747,
446,747,
445,746,
443,749,
443,754,
444,756,
444,752,
441,746,
437,746,
435,749,
434,749,
433,742,
430,735,
426,731,
423,731,
422,728,
421,721,
418,712,
414,705,
411,705,
410,702,
409,695,
407,685,
402,679,
399,678,
398,676,
396,670,
393,661,
389,656,
385,655,
384,654,
382,648,
379,639,
374,631,
372,629,
370,628,
369,621,
367,611,
364,605,
361,603,
360,602,
360,597,
359,588,
356,582,
353,580,
352,581,
352,577,
352,569,
349,564,
347,563,
347,564,
348,561,
348,555,
346,551,
344,552,
344,555,
345,554,
345,550,
345,546,
342,547,
343,551,
345,551,
346,547,
345,544,
344,546,
343,550,
346,553,
348,549,
347,545,
345,544,
344,549,
346,551,
347,548,
346,544,
344,542,
344,546,
344,547,
346,542,
345,536,
344,535,
344,538,
345,539,
346,534,
345,528,
343,526,
342,528,
342,529,
342,525,
341,518,
337,514,
334,516,
335,517,
336,513,
333,507,
330,503,
328,504,
327,506,
327,504,
326,498,
323,495,
321,496,
321,498,
321,496,
320,489,
318,486,
316,486,
316,487,
316,484,
316,478,
314,473,
311,474,
311,475,
311,472,
312,466,
311,461,
310,460,
310,461,
312,458,
312,451,
311,446,
309,444,
308,445,
310,444,
310,438,
308,433,
307,432,
306,434,
307,433,
307,427,
305,422,
304,421,
302,424,
303,423,
303,419,
303,414,
301,414,
300,417,
302,419,
303,415,
302,410,
300,409,
300,412,
301,413,
303,410,
303,404,
301,403,
301,406,
303,408,
305,406,
305,400,
303,399,
302,403,
305,406,
306,403,
307,399,
306,397,
306,400,
308,403,
310,401,
309,396,
307,393,
307,397,
306,400,
307,398,
306,393,
304,389,
302,390,
302,394,
303,393,
302,388,
299,385,
297,388,
298,392,
298,392,
298,387,
295,385,
294,388,
294,393,
294,394,
294,390,
293,387,
290,389,
292,394,
294,395,
294,391,
293,388,
291,389,
291,393,
294,394,
294,390,
294,386,
292,387,
292,391,
294,392,
295,388,
295,383,
292,383,
292,387,
294,387,
295,384,
294,379,
293,379,
293,383,
295,385,
298,383,
299,379,
299,380,
300,387,
304,392,
308,393,
311,394,
314,399,
318,411,
324,422,
330,429,
335,436,
340,445,
345,463,
354,480,
362,494,
368,503,
374,517,
380,537,
389,557,
397,573,
404,585,
408,598,
413,617,
418,635,
424,647,
429,655,
431,663,
432,676,
436,688,
439,696,
442,700,
442,703,
441,711,
440,719,
441,723,
441,721,
439,719,
435,722,
433,672,
432,90,
430,0,
427,0,
422,0,
419,0,
418,0,
416,0,
414,0,
410,0,
407,0,
405,0,
404,0,
402,0,
399,0,
396,0,
395,0,
394,0,
392,0,
390,0,
385,0,
383,0,
383,0,
381,0,
378,0,
374,0,
372,0,
371,0,
370,0,
366,0,
363,0,
360,0,
360,0,
359,0,
358,0,
354,0,
351,0,
350,0,
350,0,
349,0,
347,0,
344,0,
345,0,
345,0,
346,0,
343,0,
343,0,
342,0,
342,0,
343,0,
342,0,
340,0,
339,0,
340,0,
341,0,
340,0,
338,0,
336,0,
337,0,
338,0,
339,0,
338,0,
336,0,
337,0,
340,0,
342,0,
341,0,
340,0,
341,0,
343,0,
345,0,
344,0,
342,0,
341,0,
343,0,
344,0,
344,0,
342,0,
341,0,
340,0,
341,0,
340,0,
338,0,
335,0,
335,0,
336,0,
337,0,
334,0,
331,0,
330,0,
331,0,
331,0,
330,0,
327,0,
325,0,
325,0,
326,0,
325,0,
322,0,
320,0,
321,0,
321,0,
321,0,
320,0,
318,0,
317,0,
318,0,
318,0,
317,0,
315,0,
314,0,
314,0,
316,0,
315,0,
314,0,
313,0,
314,0,
315,0,
315,0,
313,0,
311,0,
311,0,
313,0,
314,0,
312,0,
309,0,
309,0,
311,0,
311,0,
310,0,
309,0,
308,0,
309,0,
310,0,
309,0,
307,0,
306,0,
308,0,
310,0,
309,0,
308,0,
306,0,
307,0,
308,0,
308,0,
307,0,
306,0,
306,0,
306,0,
306,0,
304,0,
304,0,
303,0,
303,0,
303,0,
302,0,
300,0,
299,0,
300,0,
300,0,
299,0,
297,0,
295,0,
295,0,
297,0,
297,0,
295,0,
293,0,
293,0,
295,0,
294,0,
293,0,
292,0,
293,0,
294,0,
295,0,
294,0,
293,0,
293,0,
294,0,
295,0,
295,0,
294,0,
293,0,
294,0,
296,0,
296,0,
295,0,
294,0,
294,0,
296,0,
297,0,
295,0,
294,0,
293,0,
294,0,
295,0,
295,0,
293,0,
293,0,
295,0,
296,0,
295,0,
294,0,
293,0,
294,0,
295,0,
295,0,
292,0,
290,0,
289,0,
291,0,
292,0,
291,0,
290,0,
291,0,
294,0,
298,0,
299,0,
301,0,
303,0,
308,0,
314,0,
318,0,
322,0,
327,0,
333,0,
340,0,
346,0,
350,0,
354,0,
361,0,
367,357,
374,990,
379,991,
383,991,
390,992,
396,692,
401,355,
404,45,
406,0,
409,0,
413,0,
416,0,
417,0,
417,0,
416,0,
418,0,
418,0,
418,0,
416,0,
414,0,
414,0,
415,0,
413,0,
411,0,
407,0,
406,0,
405,0,
403,0,
400,0,
397,0,
394,0,
393,0,
391,0,
389,0,
385,0,
383,0,
381,0,
380,0,
377,0,
374,0,
371,0,
369,0,
369,0,
367,0,
363,0,
358,0,
357,0,
355,0,
354,0,
350,0,
346,0,
344,0,
342,0,
342,0,
340,0,
336,0,
334,0,
333,0,
333,0,
331,0,
328,0,
326,0,
326,0,
327,0,
326,0,
325,0,
323,0,
323,0,
323,0,
324,0,
323,0,
322,0,
323,0,
324,0,
326,0,
325,48,
324,100,
325,159,
326,212,
328,257,
329,299,
327,342,
326,381,
327,413,
329,437,
328,457,
326,478,
325,500,
326,518,
327,531,
327,543,
325,563,
324,588,
324,610,
325,625,
324,635,
323,644,
321,650,
321,649,
322,640,
323,627,
321,616,
320,609,
319,602,
320,589,
319,577,
317,566,
315,562,
313,557,
314,546,
314,534,
311,525,
311,520,
310,514,
312,504,
313,492,
311,483,
309,485,
308,492,
309,498,
310,500,
308,504,
306,506,
305,509,
306,516,
306,519,
305,526,
302,539,
302,553,
302,562,
303,566,
301,563,
298,558,
297,557,
297,554,
298,543,
298,530,
297,521,
297,512,
298,498,
299,481,
299,466,
299,457,
298,455,
300,456,
301,460,
301,467,
300,480,
299,495,
300,498,
302,487,
301,471,
299,458,
298,449,
299,439,
299,425,
298,412,
296,404,
296,409,
296,414,
298,413,
299,406,
297,400,
296,396,
296,391,
297,383,
297,374,
296,368,
294,368,
293,368,
294,364,
295,360,
293,360,
291,366,
292,376,
293,386,
294,393,
294,400,
293,417,
294,438,
295,454,
296,465,
295,477,
293,493,
293,506,
294,511,
295,510,
294,509,
292,514,
292,518,
295,517,
296,505,
295,492,
293,482,
293,475,
295,465,
297,453,
296,441,
295,434,
295,430,
296,425,
296,416,
296,408,
294,406,
294,411,
295,423,
296,432,
296,441,
295,452,
294,464,
294,471,
295,471,
294,469,
292,468,
292,468,
294,461,
296,447,
297,433,
297,422,
299,418,
302,413,
306,405,
309,398,
311,395,
315,399,
320,403,
327,406,
333,408,
337,413,
341,425,
347,438,
354,449,
360,462,
364,485,
368,510,
373,529,
379,541,
385,545,
388,548,
390,554,
394,561,
399,563,
402,561,
404,560,
404,565,
406,572,
409,577,
409,581,
409,592,
407,608,
406,622,
406,635,
405,647,
402,658,
398,669,
395,677,
394,673,
393,658,
390,638,
386,620,
383,606,
382,590,
380,571,
377,551,
374,537,
371,529,
370,521,
368,513,
367,508,
362,508,
360,509,
359,505,
358,497,
356,492,
353,493,
350,498,
349,497,
349,488,
346,478,
342,470,
339,468,
337,465,
337,458,
336,450,
333,447,
330,448,
330,448,
330,443,
329,437,
327,435,
325,438,
325,439,
325,438,
324,436,
322,438,
319,448,
319,465,
321,478,
323,487,
321,500,
320,512,
320,516,
322,512,
323,504,
322,499,
322,501,
321,505,
324,505,
325,502,
325,498,
323,500,
323,508,
325,510,
327,504,
327,498,
326,496,
325,500,
327,508,
328,512,
327,516,
326,523,
326,530,
326,531,
327,525,
327,517,
324,516,
323,515,
324,508,
325,498,
324,488,
321,483,
320,483,
320,480,
321,473,
319,465,
316,461,
314,462,
315,459,
316,455,
316,451,
313,459,
312,473,
313,478,
315,476,
316,471,
315,469,
313,472,
314,473,
315,473,
315,470,
312,472,
311,478,
311,485,
312,492,
312,498,
310,507,
308,529,
308,549,
310,559,
310,561,
308,563,
306,566,
306,570,
307,568,
307,564,
306,557,
303,558,
302,558,
303,551,
303,535,
302,519,
300,511,
300,510,
300,511,
301,505,
299,498,
297,496,
297,495,
298,490,
300,481,
299,469,
298,458,
298,448,
298,435,
299,420,
298,408,
297,401,
296,401,
298,398,
299,397,
299,404,
298,419,
296,436,
298,442,
299,439,
299,433,
298,431,
296,434,
297,432,
299,427,
298,420,
296,418,
295,421,
295,425,
296,426,
296,424,
294,427,
293,436,
294,449,
295,462,
295,471,
294,484,
292,501,
292,513,
294,515,
292,517,
292,520,
290,526,
291,528,
292,527,
293,520,
293,515,
292,517,
293,517,
295,508,
297,494,
297,482,
297,476,
298,471,
300,465,
302,454,
304,447,
304,445,
306,444,
311,440,
315,436,
319,439,
322,446,
326,455,
332,463,
338,465,
343,467,
347,471,
353,477,
359,480,
365,478,
369,477,
372,480,
376,489,
381,494,
386,500,
390,511,
391,526,
393,544,
397,557,
400,564,
402,571,
402,580,
401,591,
403,598,
405,602,
404,603,
402,606,
400,612,
399,616,
400,614,
399,605,
396,594,
393,585,
392,576,
391,562,
389,545,
385,531,
381,523,
379,514,
379,502,
377,487,
374,477,
371,476,
369,475,
368,471,
367,464,
363,462,
360,466,
359,471,
359,472,
358,467,
355,466,
352,470,
350,473,
350,473,
349,471,
347,469,
344,471,
343,474,
343,473,
343,469,
340,468,
336,471,
334,477,
334,480,
334,479,
332,478,
329,482,
326,488,
326,492,
326,493,
324,491,
321,495,
320,501,
321,505,
322,506,
321,507,
320,515,
319,531,
321,546,
322,556,
322,560,
320,564,
320,570,
322,573,
323,569,
324,565,
322,563,
322,564,
323,563,
326,558,
327,559,
325,569,
325,584,
326,595,
328,600,
330,598,
328,598,
326,602,
326,606,
327,604,
328,601,
326,593,
325,585,
325,576,
327,564,
328,549,
326,537,
325,533,
325,539,
326,541,
326,539,
325,539,
322,543,
322,548,
323,546,
323,542,
321,542,
318,540,
317,533,
317,517,
318,499,
317,482,
316,471,
315,461,
316,448,
317,434,
316,423,
313,418,
312,417,
313,413,
313,408,
312,404,
310,406,
309,413,
309,417,
311,416,
310,415,
307,420,
306,430,
307,435,
308,433,
308,432,
306,434,
305,441,
307,448,
307,454,
307,459,
305,466,
303,477,
303,486,
305,489,
304,491,
302,495,
300,501,
302,504,
303,502,
304,498,
302,496,
301,499,
302,501,
303,500,
303,497,
302,496,
300,501,
300,509,
302,514,
302,515,
301,518,
300,527,
300,538,
301,547,
301,552,
299,563,
297,580,
297,599,
298,611,
298,616,
296,619,
295,627,
294,633,
295,630,
296,614,
294,598,
292,587,
292,578,
292,572,
294,565,
293,557,
291,549,
290,537,
291,517,
293,491,
294,466,
292,446,
292,431,
293,416,
294,398,
294,384,
293,376,
291,379,
292,383,
294,385,
294,389,
291,399,
291,414,
291,424,
293,430,
293,437,
292,445,
291,454,
291,461,
292,461,
293,453,
292,443,
291,434,
292,423,
294,406,
295,388,
294,376,
294,370,
295,367,
297,362,
297,356,
296,356,
296,362,
297,369,
300,374,
302,382,
303,392,
304,414,
307,437,
313,456,
318,470,
321,484,
325,502,
330,518,
337,531,
344,541,
349,550,
353,563,
358,575,
365,583,
371,580,
376,574,
379,569,
383,567,
389,561,
394,552,
395,543,
397,539,
399,537,
403,531,
405,522,
406,514,
405,512,
405,517,
406,521,
408,517,
406,513,
404,513,
401,517,
399,518,
398,518,
395,516,
391,517,
388,521,
387,524,
387,521,
384,516,
380,518,
377,525,
375,530,
375,536,
373,541,
369,547,
366,557,
365,565,
364,570,
364,573,
361,580,
358,588,
358,589,
359,588,
358,582,
355,576,
352,580,
350,581,
351,574,
349,564,
346,554,
343,547,
341,542,
340,533,
339,522,
336,514,
334,511,
332,509,
333,504,
333,496,
330,490,
328,490,
327,494,
327,493,
327,491,
326,492,
323,497,
323,505,
324,510,
325,508,
324,510,
323,519,
323,528,
324,533,
325,530,
325,528,
324,528,
325,531,
327,530,
328,525,
328,519,
327,518,
326,519,
327,517,
329,514,
328,512,
326,514,
324,520,
326,526,
327,534,
326,542,
325,552,
323,565,
325,574,
326,578,
327,579,
326,580,
325,583,
324,583,
327,579,
327,572,
326,570,
325,573,
326,573,
328,567,
328,560,
326,555,
325,559,
324,564,
325,565,
324,564,
323,563,
320,566,
321,567,
322,563,
322,558,
321,555,
318,555,
318,555,
319,550,
320,542,
318,536,
316,531,
316,526,
316,516,
317,505,
315,496,
313,493,
311,496,
311,496,
312,491,
311,488,
308,490,
307,496,
307,499,
307,500,
307,502,
304,506,
303,512,
304,513,
304,507,
303,501,
301,498,
301,497,
303,491,
304,482,
304,473,
302,469,
302,467,
304,463,
304,458,
304,452,
302,450,
301,454,
301,454,
303,448,
303,440,
301,436,
300,440,
300,446,
301,446,
301,447,
300,451,
299,460,
299,466,
300,473,
300,477,
298,481,
297,484,
297,485,
299,480,
299,473,
298,469,
297,468,
297,469,
299,469,
300,464,
299,462,
299,464,
298,465,
299,465,
300,463,
299,462,
297,469,
297,481,
299,485,
300,483,
299,479,
297,478,
298,477,
300,473,
300,463,
300,454,
298,448,
299,444,
300,437,
302,432,
300,430,
299,434,
298,442,
299,448,
300,451,
299,453,
298,455,
297,460,
297,459,
298,457,
298,455,
297,459,
297,464,
299,466,
301,464,
302,463,
303,465,
304,473,
307,478,
311,479,
314,479,
316,484,
318,494,
323,501,
329,505,
334,506,
339,510,
344,518,
350,527,
357,536,
362,542,
367,548,
370,556,
376,565,
383,568,
387,570,
389,574,
390,579,
393,582,
398,579,
399,572,
401,568,
401,568,
402,570,
404,566,
404,559,
402,553,
400,546,
398,539,
398,529,
396,517,
394,506,
391,504,
390,509,
390,513,
390,514,
387,516,
383,522,
381,530,
379,533,
379,529,
376,526,
373,527,
371,530,
370,531,
370,528,
367,525,
364,527,
362,533,
362,536,
362,537,
360,540,
356,546,
354,557,
354,563,
353,564,
350,564,
347,565,
344,571,
344,572,
344,568,
341,561,
337,557,
335,556,
334,553,
333,545,
332,536,
329,530,
326,530,
325,529,
326,523,
325,516,
324,513,
321,514,
321,516,
322,514,
322,510,
320,507,
319,510,
320,513,
323,513,
325,510,
323,510,
322,515,
322,519,
325,517,
326,514,
325,511,
324,512,
325,512,
328,508,
330,503,
329,500,
327,504,
327,510,
329,510,
331,506,
330,501,
329,503,
328,505,
329,506,
330,502,
329,499,
327,502,
327,505,
329,505,
330,503,
330,503,
329,504,
327,509,
327,513,
328,519,
326,524,
324,532,
323,545,
323,553,
323,552,
323,548,
321,546,
320,549,
321,549,
322,545,
322,539,
320,535,
318,534,
318,531,
319,522,
319,511,
317,504,
315,504,
315,503,
316,495,
316,484,
315,475,
313,474,
314,475,
315,475,
316,472,
314,474,
312,483,
313,492,
314,496,
314,494,
313,492,
310,494,
309,495,
310,493,
310,488,
309,485,
307,488,
307,492,
308,493,
308,490,
307,489,
304,491,
303,488,
304,480,
304,468,
302,459,
299,455,
300,454,
300,452,
301,450,
300,451,
299,454,
298,458,
299,454,
301,446,
301,438,
299,433,
299,431,
300,426,
302,418,
301,412,
299,409,
298,413,
300,417,
301,417,
300,418,
298,423,
298,432,
299,438,
301,439,
300,441,
299,448,
299,457,
300,462,
303,463,
304,462,
304,462,
303,467,
304,470,
306,469,
306,469,
304,472,
303,481,
303,492,
304,504,
304,514,
303,531,
302,549,
302,566,
303,577,
303,584,
302,587,
301,590,
300,592,
302,589,
302,583,
300,580,
298,585,
297,586,
298,585,
299,580,
299,574,
297,575,
298,575,
299,569,
300,558,
301,551,
300,548,
301,548,
305,546,
309,541,
311,539,
313,541,
318,545,
324,547,
330,545,
335,541,
338,538,
343,533,
351,524,
358,510,
364,499,
368,494,
372,497,
378,498,
385,492,
389,488,
392,488,
395,494,
399,496,
404,497,
406,498,
407,503,
407,511,
410,515,
412,515,
414,516,
414,519,
413,526,
414,532,
416,535,
415,536,
413,542,
410,552,
409,556,
411,552,
410,543,
407,535,
403,531,
402,526,
401,520,
400,512,
396,507,
393,509,
391,512,
390,513,
389,509,
387,509,
384,516,
382,523,
382,526,
382,526,
380,533,
377,546,
375,560,
375,570,
375,574,
372,577,
368,584,
367,592,
367,596,
366,597,
363,600,
359,605,
357,607,
356,603,
356,597,
354,591,
351,589,
349,590,
348,588,
349,582,
346,577,
343,575,
340,576,
340,574,
341,568,
340,563,
338,562,
337,564,
338,564,
339,562,
338,558,
336,558,
335,561,
337,559,
338,554,
337,546,
337,541,
337,542,
338,541,
340,535,
340,525,
340,519,
338,521,
337,525,
340,525,
340,521,
340,517,
338,518,
339,519,
341,516,
341,513,
340,511,
337,512,
337,513,
338,511,
338,507,
336,502,
334,502,
333,502,
334,499,
334,491,
333,484,
332,481,
331,481,
332,476,
333,471,
332,467,
331,469,
331,471,
331,469,
333,464,
331,460,
330,459,
328,463,
329,463,
330,461,
328,461,
326,465,
326,472,
326,478,
327,478,
325,477,
322,480,
320,486,
321,488,
321,486,
319,483,
316,485,
315,490,
315,492,
315,491,
314,489,
311,491,
309,496,
309,500,
310,499,
309,499,
307,500,
306,508,
306,513,
308,514,
308,514,
307,517,
306,523,
306,526,
307,524,
307,520,
305,520,
304,526,
305,531,
307,534,
307,540,
306,552,
305,564,
306,575,
307,579,
308,579,
307,587,
306,603,
307,611,
309,611,
310,603,
309,597,
309,594,
309,587,
311,575,
311,558,
311,548,
308,542,
308,541,
308,536,
309,525,
308,514,
306,507,
306,501,
307,492,
308,479,
306,467,
305,459,
303,455,
305,449,
305,440,
304,435,
303,437,
302,444,
303,447,
303,444,
303,440,
302,439,
301,444,
303,444,
304,437,
304,427,
304,421,
303,417,
304,411,
306,401,
305,390,
304,385,
303,387,
303,387,
305,384,
305,381,
304,383,
303,390,
303,396,
304,399,
304,399,
303,400,
301,408,
301,415,
302,418,
302,420,
300,424,
298,432,
297,441,
299,448,
298,453,
297,460,
296,472,
297,485,
298,499,
298,510,
298,523,
296,539,
296,555,
297,562,
297,561,
297,563,
296,570,
298,576,
301,579,
303,577,
305,576,
305,580,
308,583,
312,586,
318,590,
321,594,
325,599,
329,607,
335,610,
343,610,
348,608,
352,610,
357,614,
364,610,
371,601,
376,591,
380,585,
385,584,
392,584,
399,579,
402,575,
405,578,
408,584,
414,582,
419,572,
422,562,
422,555,
424,552,
426,547,
429,537,
430,526,
429,519,
427,517,
428,515,
429,510,
428,503,
426,501,
423,504,
423,507,
422,507,
421,505,
417,507,
414,513,
413,521,
413,524,
413,524,
410,526,
406,533,
406,539,
406,540,
405,540,
401,543,
397,553,
395,565,
395,568,
394,565,
390,562,
387,561,
385,562,
384,561,
383,554,
381,551,
376,554,
374,565,
373,575,
371,580,
368,585,
364,593,
362,605,
362,621,
360,630,
359,635,
355,634,
353,627,
353,613,
353,593,
352,574,
349,563,
348,561,
350,556,
350,547,
349,534,
346,524,
345,517,
346,510,
346,500,
346,493,
345,491,
343,495,
345,497,
346,496,
347,495,
345,499,
344,510,
346,523,
347,533,
347,543,
345,554,
343,568,
345,579,
346,584,
347,586,
346,591,
345,598,
345,604,
346,603,
346,596,
345,589,
344,585,
343,583,
345,577,
345,571,
343,566,
342,563,
342,563,
342,561,
343,555,
342,550,
340,554,
339,556,
340,555,
340,549,
339,541,
337,536,
335,533,
336,527,
336,516,
335,509,
332,508,
330,511,
331,509,
331,502,
330,494,
327,486,
326,480,
326,468,
327,452,
326,437,
324,430,
323,426,
324,416,
325,400,
324,384,
322,373,
320,368,
320,364,
320,357,
319,355,
316,360,
314,369,
313,378,
315,391,
315,400,
312,411,
311,425,
312,440,
313,451,
313,458,
310,465,
309,472,
309,476,
310,478,
310,471,
309,462,
308,458,
310,453,
311,446,
311,439,
309,436,
307,439,
306,443,
307,443,
308,440,
307,439,
306,444,
306,449,
308,450,
309,447,
308,445,
307,447,
307,451,
308,451,
309,447,
308,448,
306,460,
306,476,
307,484,
308,487,
308,489,
307,492,
307,498,
308,501,
309,503,
308,504,
306,505,
306,511,
307,512,
308,508,
308,503,
307,502,
307,506,
308,509,
309,509,
309,508,
307,508,
306,511,
307,510,
309,504,
308,499,
306,498,
304,500,
305,500,
307,495,
307,491,
304,490,
303,494,
304,496,
306,494,
306,490,
304,490,
303,494,
303,501,
304,503,
304,500,
303,500,
302,503,
302,506,
303,505,
302,502,
300,503,
298,507,
298,515,
299,522,
299,526,
296,533,
294,542,
294,549,
295,550,
296,547,
295,541,
293,539,
293,532,
294,518,
294,498,
294,481,
292,468,
293,458,
294,444,
295,427,
295,413,
294,403,
293,398,
294,389,
296,379,
295,369,
292,364,
292,364,
293,358,
295,351,
295,345,
293,344,
294,348,
297,350,
299,350,
301,351,
302,358,
303,369,
308,378,
314,382,
318,387,
321,397,
324,413,
331,429,
339,441,
345,453,
350,467,
356,486,
364,502,
372,514,
378,523,
384,535,
390,549,
398,560,
405,567,
411,570,
414,575,
417,584,
421,591,
426,596,
430,598,
432,601,
432,608,
434,613,
437,612,
438,608,
437,605,
434,607,
434,610,
435,608,
435,603,
433,600,
429,601,
427,603,
427,601,
425,595,
423,589,
418,589,
416,592,
415,596,
413,602,
410,607,
405,616,
402,626,
400,632,
399,633,
397,632,
394,635,
391,640,
391,641,
390,640,
388,636,
385,637,
382,639,
382,640,
381,638,
379,634,
376,632,
372,634,
371,629,
370,613,
368,596,
364,582,
363,571,
362,560,
361,543,
360,526,
357,510,
354,502,
353,493,
353,479,
352,465,
350,456,
347,452,
347,447,
347,436,
347,427,
345,421,
343,421,
345,421,
346,418,
347,414,
344,416,
343,423,
344,431,
345,436,
346,438,
345,442,
343,452,
343,461,
346,466,
347,468,
346,472,
345,481,
346,490,
347,494,
348,495,
347,497,
345,503,
345,511,
345,517,
347,519,
346,522,
344,529,
343,540,
343,546,
343,547,
342,548,
340,552,
338,559,
338,561,
339,558,
338,555,
335,554,
334,557,
335,556,
335,552,
335,547,
334,546,
333,548,
334,549,
334,545,
334,540,
332,538,
331,540,
331,542,
332,537,
331,532,
329,528,
329,530,
329,531,
330,527,
330,521,
329,518,
326,519,
326,523,
327,528,
326,532,
324,538,
323,550,
322,561,
323,567,
323,568,
322,571,
320,578,
319,582,
320,585,
319,584,
317,584,
314,587,
313,589,
313,584,
313,573,
311,557,
309,546,
308,541,
310,534,
310,519,
309,504,
307,493,
306,484,
308,471,
309,455,
308,440,
307,430,
306,423,
307,414,
308,403,
308,393,
306,388,
305,388,
306,386,
307,382,
306,381,
304,385,
303,394,
304,401,
305,405,
305,408,
304,415,
302,426,
304,435,
304,438,
304,443,
303,451,
303,463,
303,471,
305,474,
305,474,
303,476,
302,482,
303,486,
305,486,
305,485,
304,486,
303,492,
303,496,
305,496,
305,494,
304,506,
303,528,
302,550,
303,566,
303,577,
302,586,
301,595,
302,601,
303,601,
304,597,
303,595,
301,598,
300,601,
302,596,
302,585,
300,575,
299,571,
299,567,
300,560,
300,551,
298,546,
296,543,
295,542,
296,541,
297,540,
296,545,
294,554,
294,563,
295,566,
296,558,
297,552,
297,552,
298,555,
300,551,
303,538,
305,525,
305,517,
307,515,
311,512,
316,504,
319,496,
321,489,
325,484,
331,482,
337,477,
343,474,
346,475,
351,482,
358,491,
365,493,
372,495,
376,503,
381,517,
388,528,
394,533,
399,537,
402,542,
404,551,
409,555,
414,554,
417,550,
419,548,
421,553,
423,557,
426,555,
428,548,
428,545,
427,544,
427,544,
428,541,
428,534,
424,530,
420,532,
418,536,
416,540,
415,541,
411,544,
407,552,
404,562,
404,567,
402,570,
398,572,
394,577,
391,586,
391,591,
390,591,
387,592,
384,597,
384,600,
383,596,
383,585,
380,573,
376,564,
374,558,
374,548,
373,534,
370,518,
367,505,
363,497,
363,485,
361,469,
359,453,
354,443,
351,438,
351,431,
350,421,
348,413,
345,409,
343,411,
342,413,
342,410,
341,408,
340,410,
338,416,
338,422,
340,424,
341,426,
339,431,
337,442,
338,451,
341,455,
341,459,
340,466,
339,476,
340,487,
342,495,
343,502,
342,510,
341,522,
342,533,
343,537,
345,537,
343,537,
342,541,
344,543,
345,540,
346,535,
346,531,
345,533,
344,535,
347,534,
347,529,
346,526,
344,526,
344,529,
345,528,
345,523,
343,518,
341,519,
340,522,
340,521,
341,516,
340,513,
338,513,
336,517,
336,517,
338,514,
336,514,
334,529,
333,547,
333,563,
333,573,
332,581,
330,591,
328,597,
329,597,
329,591,
328,582,
327,576,
325,574,
325,572,
325,566,
325,557,
323,551,
321,549,
321,545,
323,537,
322,527,
321,519,
320,517,
321,515,
323,508,
323,501,
322,498,
320,500,
322,499,
323,494,
324,487,
323,483,
322,484,
322,487,
325,484,
326,477,
325,470,
324,469,
326,470,
328,467,
329,461,
329,458,
329,461,
329,464,
332,464,
333,461,
333,461,
331,468,
332,482,
334,494,
336,501,
336,510,
335,519,
335,530,
336,537,
338,535,
336,533,
335,536,
333,540,
334,540,
335,536,
334,531,
331,529,
329,530,
330,529,
330,523,
330,515,
327,512,
327,512,
327,510,
328,504,
328,497,
326,494,
324,492,
325,484,
325,468,
324,453,
322,441,
320,435,
320,428,
321,416,
321,405,
318,398,
316,396,
316,394,
317,390,
317,384,
314,383,
312,386,
312,390,
312,392,
311,390,
310,394,
307,402,
308,412,
310,417,
311,420,
311,425,
311,436,
314,448,
317,456,
321,462,
324,469,
325,483,
330,497,
335,506,
341,511,
345,516,
348,527,
353,538,
360,545,
366,550,
370,555,
373,564,
378,575,
385,583,
391,586,
395,591,
399,598,
403,608,
407,619,
412,624,
415,629,
414,637,
416,647,
420,652,
422,651,
423,647,
423,648,
423,651,
424,651,
425,647,
423,639,
421,632,
419,627,
419,618,
418,603,
417,585,
414,572,
411,564,
409,555,
409,545,
407,538,
404,532,
400,531,
399,525,
400,513,
398,499,
396,489,
392,484,
390,481,
389,477,
387,471,
384,469,
380,473,
378,478,
377,478,
376,475,
372,476,
368,483,
367,491,
366,495,
364,497,
361,501,
358,511,
355,521,
354,526,
353,529,
350,533,
347,543,
345,554,
346,561,
345,560,
343,559,
341,560,
339,562,
339,559,
340,552,
339,545,
337,542,
336,542,
337,539,
338,531,
337,521,
335,515,
336,513,
337,509,
339,501,
338,494,
337,491,
337,491,
338,490,
339,485,
339,481,
337,482,
336,487,
337,491,
338,489,
338,485,
336,485,
336,491,
336,495,
337,494,
337,494,
335,497,
334,509,
336,519,
337,526,
336,527,
335,530,
334,536,
334,540,
334,541,
335,542,
332,547,
330,556,
331,565,
332,570,
331,570,
329,572,
326,577,
327,581,
327,579,
328,573,
326,567,
324,566,
324,567,
325,562,
325,549,
324,537,
321,528,
320,520,
321,506,
322,491,
320,479,
318,474,
318,472,
318,467,
319,458,
317,450,
315,448,
315,450,
315,448,
315,442,
314,437,
311,437,
310,440,
310,441,
310,437,
308,435,
306,438,
306,446,
307,453,
308,458,
307,460,
306,464,
306,473,
308,484,
309,491,
310,496,
308,504,
307,515,
307,521,
308,520,
308,518,
306,521,
305,528,
307,533,
309,534,
310,530,
308,525,
307,524,
307,524,
309,517,
308,505,
307,500,
305,501,
306,502,
306,501,
307,497,
305,492,
303,488,
303,483,
305,474,
305,462,
304,454,
303,451,
304,449,
306,444,
306,436,
305,431,
304,430,
304,432,
305,433,
306,430,
305,429,
303,432,
302,436,
302,438,
302,438,
301,438,
299,441,
299,449,
300,453,
300,453,
299,453,
299,457,
299,466,
300,473,
303,476,
302,482,
301,497,
300,514,
301,526,
301,531,
300,534,
298,536,
297,537,
297,534,
298,530,
298,530,
295,536,
294,545,
296,545,
298,535,
298,525,
296,519,
294,519,
295,515,
297,505,
296,491,
295,480,
293,475,
293,470,
296,463,
296,454,
296,448,
295,450,
295,450,
297,446,
298,441,
297,440,
295,446,
296,451,
298,447,
298,440,
297,432,
296,431,
297,432,
299,427,
300,420,
299,415,
297,415,
297,416,
299,414,
300,411,
300,410,
299,414,
299,420,
302,425,
304,426,
305,430,
305,438,
307,449,
313,457,
318,460,
322,465,
325,478,
331,494,
338,505,
346,512,
351,523,
357,540,
362,558,
370,571,
378,580,
385,587,
389,596,
395,604,
402,607,
409,603,
415,600,
418,606,
422,618,
426,627,
431,629,
434,628,
435,626,
436,628,
438,624,
441,615,
442,603,
441,592,
439,587,
440,582,
440,574,
440,566,
439,564,
436,571,
435,577,
435,578,
433,574,
430,574,
426,580,
424,583,
423,583,
422,578,
419,574,
415,573,
412,573,
411,569,
410,558,
406,547,
403,539,
401,533,
400,522,
398,507,
396,496,
393,491,
391,489,
390,486,
390,480,
387,476,
384,477,
381,481,
380,482,
379,479,
377,476,
372,480,
370,485,
368,486,
365,485,
362,484,
359,486,
354,492,
354,494,
354,493,
353,491,
350,494,
348,502,
348,506,
348,505,
348,503,
346,506,
345,512,
345,518,
345,518,
345,517,
343,520,
342,527,
343,534,
345,537,
346,538,
345,541,
344,548,
345,554,
346,558,
347,561,
346,569,
345,580,
345,589,
346,593,
347,593,
346,596,
345,603,
345,607,
347,608,
348,605,
347,608,
345,610,
345,610,
346,599,
347,582,
346,564,
344,551,
344,539,
345,523,
345,502,
343,485,
341,474,
339,467,
339,463,
339,458,
338,457,
335,458,
334,462,
335,464,
335,463,
333,462,
329,465,
327,472,
327,476,
328,477,
326,478,
323,482,
322,486,
322,484,
323,477,
322,470,
319,467,
318,468,
318,467,
319,462,
319,456,
316,456,
315,464,
315,474,
316,480,
315,484,
313,493,
312,507,
312,519,
313,526,
313,529,
312,531,
310,533,
310,532,
311,524,
311,515,
310,507,
308,507,
308,505,
310,500,
310,493,
309,489,
307,490,
307,490,
308,485,
309,478,
307,472,
307,472,
307,472,
309,470,
310,465,
308,464,
307,468,
306,474,
308,475,
308,474,
307,473,
306,478,
306,483,
307,485,
307,481,
307,480,
305,481,
305,484,
306,485,
307,482,
307,478,
305,480,
305,485,
305,486,
306,483,
306,482,
304,487,
303,495,
304,500,
304,501,
303,504,
302,512,
301,522,
302,523,
304,522,
303,523,
302,528,
301,537,
302,541,
302,540,
303,536,
301,535,
299,539,
301,543,
302,543,
302,536,
300,528,
299,524,
299,515,
302,502,
302,489,
300,478,
299,474,
300,468,
301,457,
301,443,
299,432,
298,426,
298,420,
300,411,
301,399,
299,391,
298,391,
298,389,
299,384,
299,377,
298,374,
297,377,
298,382,
299,384,
300,383,
299,385,
298,392,
297,400,
299,404,
299,403,
299,406,
297,411,
297,419,
299,424,
299,426,
300,427,
298,435,
298,444,
300,451,
303,455,
304,457,
305,465,
307,476,
311,486,
316,490,
320,495,
324,504,
328,515,
336,522,
342,526,
349,530,
355,536,
359,545,
368,554,
378,558,
383,559,
387,563,
392,570,
399,573,
406,569,
410,566,
413,567,
416,572,
420,575,
425,571,
427,565,
429,561,
429,563,
431,563,
433,560,
434,554,
433,552,
432,554,
432,556,
432,555,
432,550,
430,548,
427,550,
425,554,
424,553,
423,548,
420,546,
416,548,
415,553,
415,556,
414,557,
410,559,
406,564,
404,570,
404,573,
402,571,
399,569,
395,571,
393,575,
392,574,
391,569,
388,565,
383,565,
380,569,
379,568,
378,563,
375,559,
371,559,
368,562,
367,560,
366,555,
364,550,
361,548,
357,549,
357,548,
357,541,
355,536,
351,533,
348,535,
347,535,
346,529,
345,525,
341,522,
339,525,
339,527,
339,524,
339,520,
335,521,
335,524,
335,527,
337,526,
338,524,
337,524,
336,529,
337,533,
340,532,
341,527,
340,526,
339,529,
340,531,
341,528,
341,522,
342,519,
341,521,
342,522,
344,518,
345,510,
344,505,
342,505,
342,506,
343,504,
344,499,
342,496,
340,496,
340,499,
341,497,
341,492,
340,491,
338,493,
336,498,
336,498,
335,495,
334,494,
331,497,
329,502,
329,505,
330,503,
328,502,
326,505,
324,510,
325,512,
326,510,
325,507,
322,507,
321,511,
321,510,
323,506,
322,501,
321,499,
320,502,
320,502,
321,499,
321,494,
319,493,
317,496,
318,497,
319,494,
319,490,
317,488,
316,492,
316,493,
317,490,
316,485,
314,484,
312,487,
311,489,
312,488,
311,485,
309,485,
307,489,
307,493,
307,493,
307,491,
305,492,
304,497,
304,502,
304,502,
305,500,
303,498,
300,502,
300,506,
300,506,
300,503,
298,503,
297,506,
296,510,
297,507,
298,502,
296,497,
295,496,
295,498,
296,497,
298,491,
298,488,
298,489,
297,492,
298,490,
299,485,
298,482,
297,482,
297,486,
298,485,
299,480,
299,477,
297,478,
296,482,
299,482,
300,479,
300,476,
299,476,
298,481,
300,483,
301,481,
302,478,
301,480,
300,486,
301,490,
302,490,
301,486,
300,487,
300,492,
301,496,
303,494,
303,491,
302,491,
300,496,
301,499,
302,497,
302,493,
301,494,
299,501,
299,510,
300,515,
301,512,
300,509,
297,509,
297,510,
298,510,
298,510,
296,511,
293,518,
293,524,
294,524,
295,522,
294,521,
293,526,
292,532,
293,534,
294,528,
292,521,
291,521,
291,523,
292,523,
293,519,
292,517,
291,520,
290,524,
292,527,
294,524,
294,521,
293,523,
292,524,
294,522,
296,514,
296,508,
296,505,
296,502,
300,496,
303,488,
306,481,
308,481,
311,486,
315,489,
321,489,
325,485,
329,486,
333,492,
340,499,
347,502,
354,504,
358,509,
364,518,
371,526,
378,530,
384,532,
388,536,
392,545,
398,554,
404,561,
409,565,
412,571,
414,580,
417,587,
420,586,
422,582,
422,581,
420,584,
421,585,
422,580,
422,571,
421,564,
418,561,
417,556,
417,547,
415,535,
413,525,
410,522,
408,520,
407,515,
406,509,
403,506,
400,506,
397,509,
397,507,
395,502,
393,499,
388,502,
386,508,
385,509,
384,506,
382,506,
378,508,
375,513,
374,514,
374,511,
371,508,
369,509,
366,512,
366,512,
365,508,
364,503,
359,503,
357,506,
355,508,
354,504,
352,499,
348,498,
346,502,
345,504,
344,502,
342,500,
339,502,
337,508,
337,513,
338,514,
337,515,
334,518,
332,527,
333,534,
334,537,
334,536,
333,539,
331,546,
334,552,
335,555,
335,555,
335,556,
334,560,
334,564,
336,563,
336,558,
334,554,
333,554,
334,554,
335,550,
336,545,
335,542,
334,545,
335,549,
336,549,
338,546,
337,545,
337,549,
337,554,
339,555,
340,550,
339,546,
337,544,
337,544,
337,540,
338,532,
337,525,
335,522,
335,523,
336,521,
337,514,
337,509,
334,507,
332,508,
333,506,
334,501,
332,498,
330,499,
328,504,
329,507,
329,504,
329,500,
326,500,
323,505,
323,506,
324,503,
322,499,
319,500,
317,505,
317,508,
318,507,
317,503,
315,502,
313,505,
313,509,
314,507,
314,503,
313,501,
311,503,
311,503,
311,499,
311,493,
309,490,
307,491,
306,493,
307,489,
307,482,
305,478,
304,480,
304,482,
305,480,
307,475,
306,473,
305,475,
305,479,
306,480,
307,477,
305,476,
302,481,
302,487,
303,490,
303,489,
302,488,
301,490,
300,494,
301,493,
302,489,
302,486,
300,486,
299,490,
302,490,
303,489,
303,492,
302,503,
303,512,
303,512,
303,507,
303,500,
303,495,
302,496,
303,493,
306,485,
305,477,
305,474,
303,474,
306,471,
307,463,
307,453,
305,448,
305,447,
307,443,
309,436,
309,429,
307,426,
306,428,
308,428,
310,425,
310,422,
310,422,
309,427,
310,432,
312,432,
312,431,
311,433,
311,442,
311,450,
312,453,
313,452,
310,452,
308,458,
309,464,
310,465,
310,464,
309,466,
308,473,
309,481,
312,487,
314,491,
314,496,
315,507,
317,517,
321,523,
324,526,
326,530,
329,539,
332,549,
338,556,
345,558,
350,562,
354,568,
359,575,
365,579,
372,579,
377,580,
381,583,
386,591,
393,594,
399,593,
403,592,
407,594,
410,599,
415,602,
420,600,
422,598,
422,598,
422,601,
424,600,
424,595,
423,589,
420,585,
418,587,
419,586,
421,581,
420,576,
418,576,
414,580,
413,583,
412,581,
411,578,
407,578,
404,582,
402,585,
402,582,
399,578,
395,576,
391,577,
389,579,
389,578,
387,574,
384,572,
381,575,
378,578,
377,576,
376,571,
371,566,
369,568,
367,570,
366,567,
366,561,
364,556,
362,554,
359,554,
359,551,
358,544,
355,539,
351,536,
348,537,
349,535,
349,530,
347,524,
343,521,
341,521,
342,517,
341,512,
339,507,
337,506,
335,508,
336,507,
337,503,
336,498,
334,498,
334,503,
336,504,
337,501,
337,499,
337,500,
336,505,
337,509,
338,508,
338,505,
337,507,
335,513,
337,515,
338,513,
338,509,
336,510,
334,514,
335,518,
335,517,
335,514,
332,514,
330,519,
331,522,
331,522,
331,517,
328,517,
327,521,
326,523,
328,522,
328,517,
326,516,
324,520,
323,524,
324,522,
324,519,
323,516,
322,518,
322,521,
324,519,
324,513,
321,510,
319,512,
318,515,
318,515,
320,512,
319,511,
317,514,
317,519,
318,518,
318,515,
317,514,
315,517,
314,523,
315,525,
316,522,
314,521,
312,524,
311,528,
312,528,
313,524,
313,518,
310,516,
309,515,
310,511,
311,503,
311,495,
309,490,
308,490,
310,486,
310,480,
310,473,
308,471,
307,473,
308,473,
310,467,
310,461,
308,460,
306,462,
307,463,
309,461,
309,456,
306,455,
305,460,
306,463,
308,465,
307,466,
305,470,
302,477,
301,483,
303,485,
302,484,
301,484,
299,489,
299,493,
299,494,
300,490,
298,488,
296,490,
296,492,
299,488,
299,482,
298,480,
297,482,
297,485,
299,483,
301,479,
300,476,
299,478,
300,481,
302,480,
303,474,
303,471,
301,472,
301,477,
303,478,
303,475,
303,472,
301,475,
300,480,
302,481,
303,479,
303,476,
301,477,
301,482,
301,484,
302,482,
300,480,
299,483,
298,489,
299,493,
300,490,
299,488,
298,490,
297,495,
299,497,
301,495,
302,490,
301,491,
301,495,
302,496,
303,493,
304,489,
302,487,
301,490,
301,491,
302,489,
303,484,
302,482,
299,483,
299,483,
300,479,
300,473,
298,470,
296,473,
297,475,
298,473,
298,468,
296,466,
295,469,
296,473,
298,472,
300,469,
300,471,
301,477,
304,484,
310,488,
314,489,
318,491,
322,498,
327,507,
333,512,
340,514,
346,516,
351,523,
357,532,
365,538,
374,539,
380,540,
385,545,
391,552,
398,556,
406,556,
410,556,
413,560,
415,567,
420,570,
425,569,
426,567,
426,570,
427,576,
430,578,
430,578,
431,576,
429,576,
427,581,
427,582,
426,579,
424,574,
421,573,
418,575,
416,576,
416,573,
414,568,
411,567,
407,570,
405,569,
404,564,
402,558,
398,555,
395,558,
393,560,
394,558,
392,553,
389,552,
386,555,
384,559,
384,557,
382,554,
379,553,
376,556,
374,560,
374,558,
373,554,
370,553,
367,557,
367,560,
366,560,
364,555,
362,553,
357,554,
355,555,
354,551,
354,543,
351,537,
349,533,
347,533,
347,529,
347,520,
345,513,
341,510,
339,512,
339,511,
339,505,
338,502,
335,503,
335,507,
335,509,
336,506,
336,505,
335,506,
334,510,
335,512,
336,507,
336,504,
335,504,
334,507,
336,509,
337,505,
338,501,
336,500,
336,503,
337,504,
338,501,
338,497,
336,498,
335,502,
335,505,
335,503,
336,499,
334,499,
332,505,
333,507,
334,506,
334,502,
332,501,
330,506,
330,510,
330,509,
330,506,
327,506,
324,511,
324,514,
324,512,
324,505,
322,501,
320,503,
319,505,
321,502,
322,497,
321,493,
319,494,
319,496,
320,494,
321,489,
319,486,
317,488,
316,492,
317,491,
319,487,
318,486,
317,488,
317,492,
318,493,
319,489,
317,486,
315,488,
313,492,
315,492,
316,488,
314,485,
313,486,
312,492,
312,494,
313,493,
312,492,
311,493,
308,499,
308,501,
308,499,
308,497,
305,498,
303,503,
304,504,
304,500,
304,495,
302,493,
301,495,
301,495,
302,490,
301,483,
300,479,
297,480,
298,481,
299,477,
299,470,
298,467,
297,469,
297,470,
298,467,
299,462,
298,459,
297,462,
297,464,
300,463,
301,459,
301,456,
301,459,
302,463,
303,461,
304,457,
301,454,
299,459,
299,462,
300,463,
300,460,
300,459,
298,462,
298,466,
300,467,
301,464,
300,461,
299,464,
298,468,
300,470,
301,467,
300,465,
299,468,
299,473,
300,475,
302,473,
302,473,
301,476,
300,482,
301,486,
302,486,
301,486,
301,489,
300,495,
301,497,
302,495,
302,492,
301,493,
299,496,
300,497,
301,494,
301,490,
299,488,
300,492,
300,492,
301,489,
301,483,
299,480,
297,483,
298,484,
299,482,
298,476,
297,474,
294,477,
293,478,
293,476,
291,471,
290,468,
288,472,
288,473,
289,472,
290,468,
289,468,
289,474,
292,480,
295,482,
299,482,
301,484,
303,491,
307,498,
314,502,
319,504,
323,507,
327,515,
334,524,
343,531,
350,533,
355,537,
360,544,
366,554,
374,560,
381,562,
386,563,
390,568,
396,575,
402,580,
408,580,
411,578,
413,580,
414,585,
417,586,
421,581,
422,576,
421,574,
420,577,
422,578,
422,576,
422,572,
420,572,
417,576,
417,578,
416,575,
414,570,
410,570,
407,573,
406,577,
406,577,
403,578,
399,578,
395,581,
394,581,
392,575,
391,568,
387,563,
383,564,
382,563,
381,558,
380,552,
376,548,
372,549,
370,550,
369,545,
368,539,
365,536,
362,537,
360,540,
359,540,
359,536,
355,536,
352,544,
350,555,
350,564,
349,570,
346,577,
343,589,
340,599,
339,604,
338,603,
336,603,
332,606,
330,609,
331,608,
332,602,
331,595,
329,592,
330,591,
331,588,
333,580,
331,574,
330,570,
329,568,
330,562,
331,553,
331,545,
330,542,
329,543,
330,541,
331,533,
332,526,
330,523,
330,525,
331,525,
333,521,
332,515,
330,515,
330,522,
331,524,
332,522,
333,518,
330,517,
330,521,
331,520,
332,516,
334,512,
332,511,
331,513,
332,513,
333,508,
332,501,
330,493,
328,487,
328,481,
329,470,
327,458,
325,447,
323,441,
323,435,
323,427,
324,416,
322,409,
320,408,
320,409,
321,407,
321,403,
319,402,
316,406,
316,411,
316,414,
317,414,
314,416,
311,423,
310,432,
311,439,
310,442,
309,446,
307,453,
306,461,
307,466,
307,468,
306,469,
304,475,
303,483,
305,487,
306,488,
306,486,
304,490,
304,496,
304,497,
306,493,
304,488,
303,488,
302,494,
304,497,
304,498,
304,497,
302,500,
301,506,
303,508,
303,503,
303,498,
302,495,
301,498,
302,500,
303,497,
303,493,
301,494,
301,500,
300,508,
302,512,
302,513,
301,519,
300,528,
301,534,
301,534,
301,532,
299,533,
297,538,
296,541,
297,537,
298,530,
297,524,
295,525,
295,526,
297,523,
296,516,
295,512,
294,513,
294,516,
294,515,
294,511,
293,506,
291,506,
291,507,
292,505,
293,499,
291,494,
289,494,
288,495,
289,492,
290,484,
290,479,
289,480,
289,484,
291,484,
293,480,
293,476,
294,475,
294,473,
295,467,
298,456,
298,445,
296,437,
297,433,
298,428,
299,419,
300,411,
299,408,
298,412,
299,414,
300,412,
299,410,
297,412,
295,421,
295,430,
296,435,
296,437,
293,443,
292,452,
292,459,
294,461,
294,460,
293,463,
291,470,
291,478,
292,481,
294,481,
292,483,
290,487,
291,489,
293,486,
293,478,
292,474,
291,474,
291,478,
292,479,
294,474,
292,473,
293,476,
293,478,
295,476,
298,471,
300,467,
301,470,
304,473,
309,472,
314,469,
318,467,
321,470,
324,475,
330,479,
336,479,
341,481,
345,488,
351,497,
358,502,
365,504,
370,505,
375,511,
381,519,
388,524,
393,524,
397,525,
398,529,
400,537,
404,541,
406,540,
409,537,
408,538,
407,544,
409,546,
410,544,
410,540,
409,541,
407,545,
408,548,
409,547,
408,544,
405,544,
402,550,
401,553,
401,551,
399,547,
396,545,
392,546,
391,547,
390,541,
390,533,
386,528,
383,527,
380,526,
379,522,
377,516,
374,514,
371,516,
369,518,
368,516,
367,511,
363,509,
359,512,
358,515,
358,515,
356,511,
353,508,
349,510,
347,512,
347,511,
346,505,
343,501,
339,500,
338,503,
338,501,
338,496,
336,491,
334,492,
333,497,
333,498,
333,495,
332,495,
329,498,
328,502,
328,504,
329,502,
329,499,
326,501,
325,506,
326,509,
326,506,
326,503,
324,504,
323,510,
325,512,
328,509,
328,504,
328,502,
328,506,
330,507,
332,504,
334,500,
333,499,
333,503,
333,505,
334,503,
334,499,
332,499,
330,504,
330,507,
331,506,
331,503,
330,503,
328,509,
328,512,
329,510,
329,507,
327,505,
325,508,
325,511,
327,508,
327,503,
325,500,
323,501,
324,504,
325,502,
325,498,
324,496,
321,498,
321,501,
322,500,
322,497,
320,496,
319,499,
318,505,
319,505,
319,502,
317,500,
315,502,
314,507,
315,507,
316,503,
315,499,
313,501,
312,505,
313,505,
313,500,
312,496,
310,495,
308,496,
310,498,
310,493,
309,489,
308,489,
307,491,
308,491,
309,487,
309,482,
307,481,
304,485,
304,487,
304,484,
302,481,
300,481,
298,485,
298,488,
298,485,
298,481,
297,482,
295,485,
297,488,
298,485,
299,481,
297,482,
296,485,
296,489,
297,487,
299,482,
298,480,
297,484,
298,487,
301,486,
301,481,
300,480,
300,483,
301,486,
302,484,
303,480,
302,478,
301,480,
301,483,
302,482,
303,479,
302,477,
301,480,
300,485,
301,486,
302,482,
301,478,
299,479,
299,482,
299,481,
301,477,
299,475,
299,478,
298,483,
298,485,
299,483,
297,480,
295,483,
295,487,
296,489,
297,486,
296,483,
295,484,
294,489,
295,491,
297,487,
296,484,
295,482,
295,484,
296,485,
297,480,
296,475,
294,473,
293,476,
293,477,
294,475,
293,471,
292,470,
292,475,
293,476,
295,473,
297,469,
297,468,
297,471,
299,474,
303,476,
307,475,
308,479,
310,487,
315,494,
320,497,
324,498,
327,502,
330,511,
335,521,
342,525,
348,525,
351,527,
355,534,
361,541,
368,543,
373,541,
378,541,
382,546,
386,552,
392,555,
397,554,
399,555,
399,560,
401,566,
405,567,
407,565,
407,562,
407,563,
406,567,
406,567,
407,562,
406,557,
404,557,
401,561,
401,565,
401,563,
398,559,
394,559,
391,562,
391,562,
391,556,
389,551,
385,548,
382,550,
382,549,
382,545,
381,540,
378,539,
376,543,
375,545,
377,542,
376,539,
373,540,
372,546,
370,551,
372,550,
371,548,
368,548,
364,553,
363,557,
363,554,
362,549,
358,547,
355,550,
353,551,
351,548,
350,542,
346,538,
343,540,
341,540,
340,537,
340,532,
337,529,
334,532,
333,536,
333,535,
334,531,
332,528,
329,530,
327,534,
328,532,
328,528,
327,526,
324,529,
323,534,
325,535,
326,531,
326,528,
324,528,
323,531,
326,532,
327,529,
327,527,
325,529,
325,535,
327,536,
328,533,
329,529,
328,531,
328,537,
330,540,
332,538,
332,537,
331,539,
333,548,
334,556,
337,558,
337,556,
337,559,
336,568,
337,574,
339,574,
339,572,
337,572,
336,576,
336,578,
337,570,
337,557,
335,545,
334,538,
333,530,
335,518,
335,504,
333,494,
331,489,
331,483,
332,476,
332,465,
330,458,
328,458,
328,457,
328,454,
328,447,
327,443,
324,445,
323,446,
324,445,
323,440,
320,439,
317,442,
315,446,
315,448,
315,445,
313,445,
310,448,
308,453,
309,454,
309,452,
307,452,
304,455,
302,462,
303,465,
303,464,
302,464,
299,469,
298,474,
298,476,
299,474,
298,473,
297,475,
296,481,
296,484,
297,482,
298,480,
296,480,
296,484,
297,486,
297,483,
298,479,
296,478,
295,481,
296,482,
297,480,
298,476,
296,477,
296,482,
297,486,
298,485,
298,483,
297,483,
297,489,
299,492,
300,492,
300,488,
299,487,
298,491,
299,494,
301,492,
302,487,
301,486,
300,489,
301,491,
302,491,
302,486,
300,484,
298,487,
298,490,
300,490,
300,487,
299,485,
297,488,
297,492,
299,492,
300,488,
299,486,
298,488,
298,492,
299,492,
300,488,
300,486,
298,489,
298,493,
301,493,
303,489,
302,487,
301,488,
302,492,
304,494,
307,491,
308,489,
309,491,
311,496,
317,500,
321,500,
325,500,
328,505,
331,513,
337,519,
343,520,
349,521,
352,525,
357,533,
365,541,
371,541,
376,542,
377,545,
381,552,
386,557,
392,558,
395,558,
396,560,
397,569,
400,574,
403,576,
405,576,
405,578,
404,583,
405,587,
407,585,
408,580,
405,576,
402,577,
401,577,
402,574,
401,567,
398,562,
395,562,
392,565,
392,564,
391,559,
388,556,
384,558,
383,561,
383,560,
382,555,
378,553,
376,555,
373,558,
372,557,
371,551,
368,548,
365,548,
362,551,
361,551,
362,546,
359,542,
356,543,
354,546,
353,544,
352,540,
349,534,
345,532,
343,533,
341,533,
340,528,
336,524,
332,521,
329,520,
328,516,
328,509,
326,501,
323,499,
320,501,
320,502,
321,498,
320,494,
318,494,
316,497,
318,498,
319,494,
318,489,
318,487,
318,491,
319,493,
321,491,
323,487,
322,486,
321,490,
323,493,
325,491,
326,488,
325,487,
325,492,
326,495,
328,496,
329,494,
328,494,
327,498,
328,503,
329,503,
330,500,
329,499,
327,503,
327,508,
328,509,
329,508,
328,507,
326,512,
326,516,
328,517,
328,514,
328,512,
326,515,
324,519,
326,519,
326,512,
324,508,
322,508,
321,508,
321,506,
323,500,
322,495,
320,495,
318,497,
319,497,
319,493,
318,490,
315,490,
314,495,
315,498,
317,498,
317,497,
314,499,
313,505,
313,508,
313,507,
313,505,
310,506,
309,511,
309,514,
310,513,
310,510,
308,509,
306,513,
306,515,
307,513,
306,507,
304,506,
302,510,
302,512,
303,509,
303,505,
302,505,
301,509,
303,513,
305,511,
305,506,
305,505,
303,509,
303,513,
304,512,
305,507,
304,505,
302,508,
303,512,
305,512,
307,509,
306,508,
305,510,
306,513,
308,511,
309,507,
309,503,
308,504,
308,507,
310,505,
311,501,
311,498,
310,499,
310,503,
311,504,
313,499,
313,495,
312,495,
311,499,
312,499,
313,495,
312,490,
310,489,
309,492,
309,493,
310,490,
309,485,
307,486,
307,490,
308,491,
309,487,
309,482,
307,480,
306,483,
306,484,
307,480,
307,476,
304,474,
302,477,
301,479,
303,475,
303,470,
301,470,
300,475,
301,477,
301,475,
302,471,
302,469,
301,473,
302,475,
304,474,
304,471,
304,473,
304,479,
307,486,
311,489,
315,490,
318,492,
321,501,
326,509,
334,514,
339,515,
343,519,
348,527,
354,538,
361,545,
369,547,
375,551,
380,559,
386,570,
393,577,
400,579,
405,583,
408,588,
412,596,
418,601,
424,601,
427,602,
429,607,
432,615,
436,617,
439,613,
440,609,
438,608,
438,612,
439,612,
440,607,
439,603,
436,603,
433,607,
434,608,
433,604,
431,599,
426,598,
424,601,
423,602,
423,597,
420,592,
417,591,
414,593,
413,594,
413,590,
410,583,
408,581,
405,583,
404,583,
404,579,
403,574,
400,571,
397,572,
395,573,
394,570,
393,564,
390,560,
386,562,
384,564,
384,561,
382,556,
378,553,
373,554,
371,556,
370,554,
368,546,
363,543,
360,544,
358,547,
357,545,
356,540,
354,537,
351,539,
349,544,
349,544,
350,541,
348,537,
347,539,
346,542,
346,540,
347,535,
347,529,
345,529,
344,533,
346,534,
348,531,
349,529,
348,531,
348,537,
350,541,
352,540,
352,538,
351,540,
350,546,
351,548,
353,546,
353,543,
352,545,
352,551,
353,554,
354,553,
355,550,
353,550,
353,555,
354,557,
356,555,
356,550,
354,549,
353,553,
353,554,
355,552,
355,546,
353,543,
351,545,
351,547,
352,544,
351,538,
348,535,
345,537,
344,540,
344,539,
343,534,
340,532,
337,534,
335,536,
335,533,
334,528,
332,524,
329,524,
328,525,
328,522,
327,517,
324,512,
320,513,
319,514,
318,513,
317,507,
315,503,
312,503,
311,506,
312,503,
313,499,
311,494,
309,495,
308,497,
309,497,
311,493,
311,489,
308,489,
308,494,
309,497,
311,494,
310,492,
309,493,
309,498,
310,499,
310,497,
311,494,
309,494,
307,498,
307,499,
308,497,
308,493,
306,492,
305,496,
306,497,
307,495,
307,491,
304,491,
304,495,
306,496,
307,494,
307,489,
306,488,
304,492,
305,495,
307,494,
308,490,
306,487,
304,491,
306,494,
308,494,
309,490,
308,489,
307,493,
307,497,
309,497,
311,493,
310,491,
308,494,
309,498,
310,499,
312,496,
312,495,
311,497,
311,500,
313,500,
314,497,
314,495,
311,496,
312,502,
313,502,
313,498,
312,495,
310,496,
310,499,
311,499,
311,496,
310,492,
308,493,
307,496,
307,497,
309,493,
308,490,
306,492,
306,496,
306,497,
307,494,
306,491,
305,491,
303,496,
304,497,
305,495,
306,490,
304,490,
303,494,
305,495,
307,494,
309,492,
310,493,
313,500,
317,506,
323,509,
328,509,
333,513,
336,522,
342,530,
349,535,
355,538,
360,546,
364,556,
371,566,
379,573,
386,575,
392,579,
397,588,
403,597,
409,601,
414,601,
418,603,
421,608,
424,615,
429,617,
433,615,
434,615,
434,618,
436,623,
438,624,
439,620,
439,617,
437,619,
436,623,
437,623,
436,618,
434,614,
431,614,
429,616,
429,616,
428,610,
425,604,
422,603,
419,607,
420,606,
419,601,
416,595,
412,595,
410,599,
409,599,
408,594,
405,589,
401,587,
398,590,
399,589,
398,586,
396,580,
392,578,
389,580,
388,581,
388,576,
386,571,
384,569,
381,572,
380,574,
378,569,
376,562,
371,559,
366,560,
365,559,
364,555,
362,551,
359,549,
356,552,
354,555,
353,553,
352,548,
349,545,
346,546,
344,548,
345,546,
344,540,
343,537,
341,538,
341,541,
342,540,
343,534,
341,530,
338,531,
338,534,
339,533,
340,528,
339,525,
338,525,
339,529,
341,530,
342,527,
343,525,
341,527,
342,533,
344,534,
345,532,
344,529,
343,530,
341,534,
342,533,
343,528,
343,523,
340,522,
338,525,
338,525,
339,522,
337,518,
335,518,
334,523,
334,524,
334,521,
332,517,
331,516,
328,521,
328,522,
329,520,
327,515,
326,514,
324,517,
325,518,
326,515,
326,510,
324,509,
322,511,
321,512,
322,509,
322,503,
320,501,
318,503,
318,505,
320,504,
321,499,
319,497,
317,501,
317,504,
317,503,
317,499,
316,496,
315,500,
315,502,
316,501,
317,496,
316,494,
314,496,
313,499,
314,499,
315,494,
314,492,
312,494,
311,497,
313,497,
313,492,
312,489,
310,491,
308,494,
310,493,
311,489,
310,485,
308,486,
307,489,
306,489,
307,484,
306,479,
304,478,
303,481,
305,481,
305,477,
306,473,
305,473,
304,476,
305,477,
306,474,
306,469,
304,467,
304,471,
305,472,
307,469,
307,464,
305,463,
305,465,
304,466,
306,463,
306,459,
304,458,
303,463,
303,466,
303,465,
303,461,
301,462,
299,468,
299,473,
300,474,
300,471,
300,471,
299,477,
299,482,
301,482,
301,480,
300,479,
298,483,
298,487,
300,487,
301,484,
299,483,
298,487,
297,492,
297,492,
298,488,
297,486,
295,489,
295,492,
297,492,
297,487,
296,482,
294,481,
295,484,
298,483,
300,477,
299,473,
300,474,
300,478,
302,479,
304,476,
305,472,
303,472,
302,476,
303,478,
303,474,
302,470,
300,470,
299,474,
299,476,
299,473,
299,470,
296,470,
295,475,
296,478,
298,476,
298,473,
297,474,
297,481,
301,485,
304,485,
307,485,
309,488,
311,497,
316,505,
322,510,
329,511,
332,516,
337,526,
344,535,
352,540,
359,542,
365,546,
371,554,
377,563,
385,568,
391,568,
396,570,
400,578,
406,585,
413,587,
418,586,
421,585,
423,590,
425,596,
429,596,
432,592,
432,590,
432,594,
432,598,
434,600,
435,597,
432,595,
429,597,
427,601,
427,602,
426,597,
423,593,
419,593,
416,597,
415,597,
412,592,
409,588,
403,589,
400,593,
397,592,
396,587,
393,582,
390,581,
386,584,
386,584,
384,581,
383,575,
379,573,
377,573,
375,573,
374,568,
372,560,
368,558,
365,559,
363,559,
363,554,
361,547,
358,544,
355,546,
353,547,
352,542,
352,535,
349,532,
345,533,
343,533,
343,530,
342,525,
339,522,
337,525,
336,528,
335,527,
336,524,
335,521,
334,524,
333,528,
334,527,
334,523,
333,521,
332,523,
332,527,
333,526,
335,521,
333,519,
332,521,
332,526,
333,525,
335,521,
335,519,
334,521,
334,527,
336,528,
338,526,
337,523,
335,524,
335,528,
336,529,
336,526,
336,522,
333,522,
333,527,
334,528,
336,525,
335,522,
335,523,
334,527,
335,528,
336,525,
335,520,
334,519,
332,522,
332,523,
333,519,
332,514,
330,514,
328,516,
327,517,
328,514,
327,508,
326,506,
325,509,
325,509,
325,506,
325,500,
322,498,
320,501,
320,502,
320,499,
320,494,
318,491,
315,493,
315,495,
315,493,
314,488,
312,485,
310,486,
310,489,
311,487,
311,483,
309,480,
307,482,
307,485,
309,485,
309,481,
308,477,
305,479,
304,481,
305,480,
305,475,
304,472,
302,472,
301,476,
302,475,
303,470,
303,466,
302,467,
301,471,
302,472,
304,468,
303,465,
301,466,
299,471,
300,472,
300,470,
300,467,
299,469,
299,474,
300,475,
302,473,
302,470,
299,470,
298,475,
298,476,
300,474,
300,471,
298,471,
298,477,
298,480,
300,480,
300,477,
298,477,
297,482,
296,484,
299,481,
298,478,
297,475,
295,478,
296,480,
297,478,
298,473,
297,471,
295,474,
296,477,
297,476,
299,471,
298,469,
297,473,
297,476,
298,475,
298,472,
297,470,
296,474,
297,479,
297,479,
298,477,
297,476,
295,481,
295,486,
297,488,
298,486,
297,486,
296,489,
296,494,
297,496,
298,493,
298,490,
296,491,
295,495,
295,496,
297,491,
296,486,
294,486,
293,488,
295,487,
295,481,
295,475,
293,473,
292,476,
294,477,
296,473,
297,470,
298,471,
300,477,
304,480,
309,481,
313,480,
316,485,
319,494,
326,502,
333,506,
338,508,
342,514,
347,524,
354,533,
362,538,
367,540,
372,545,
376,554,
381,563,
388,567,
393,568,
396,570,
398,579,
401,585,
406,588,
409,587,
409,587,
409,591,
411,595,
413,594,
414,590,
412,587,
411,589,
412,593,
412,592,
411,587,
409,583,
407,583,
405,586,
405,585,
404,578,
400,573,
396,572,
392,575,
392,573,
391,567,
388,561,
384,559,
382,560,
381,557,
381,551,
379,545,
375,543,
372,544,
371,543,
370,538,
367,533,
364,531,
361,533,
360,533,
360,527,
358,521,
355,518,
352,521,
352,520,
353,515,
351,511,
347,510,
344,514,
343,516,
344,514,
342,510,
339,508,
337,512,
335,514,
336,512,
335,508,
333,507,
331,511,
331,515,
332,514,
333,511,
331,511,
329,515,
329,520,
330,519,
332,516,
330,514,
329,518,
330,523,
332,522,
333,517,
332,516,
331,520,
333,523,
335,522,
336,517,
335,515,
333,517,
333,521,
335,521,
336,516,
335,512,
333,513,
334,516,
335,515,
336,510,
335,507,
333,508,
332,512,
333,512,
334,508,
332,504,
331,503,
330,507,
331,506,
332,502,
331,498,
329,497,
327,501,
329,501,
330,498,
330,494,
328,494,
327,498,
327,499,
327,495,
326,492,
324,492,
323,496,
322,499,
324,495,
323,491,
321,491,
319,494,
319,495,
320,492,
320,486,
318,485,
316,488,
316,492,
316,489,
316,485,
314,484,
312,487,
313,490,
314,489,
313,485,
311,484,
309,487,
308,490,
309,489,
309,485,
307,483,
305,486,
304,490,
306,489,
305,485,
304,482,
303,485,
303,488,
303,487,
304,482,
303,479,
302,480,
302,483,
304,482,
306,479,
305,476,
304,477,
303,482,
304,482,
306,478,
305,476,
303,478,
303,481,
304,482,
306,478,
306,474,
304,474,
303,478,
305,479,
307,475,
306,471,
304,470,
303,474,
304,475,
305,472,
304,467,
302,467,
300,471,
299,473,
301,471,
299,467,
297,466,
295,471,
295,473,
297,471,
298,467,
296,465,
296,469,
297,472,
300,471,
301,467,
300,467,
301,472,
303,476,
305,476,
309,475,
310,476,
312,482,
316,489,
321,492,
326,494,
329,497,
331,506,
336,515,
342,521,
348,523,
352,528,
356,536,
362,546,
369,552,
376,553,
380,556,
383,563,
386,571,
393,576,
398,576,
400,577,
403,582,
405,589,
409,592,
414,590,
415,589,
415,591,
415,597,
417,598,
417,595,
416,592,
414,592,
413,596,
413,597,
413,592,
411,588,
409,587,
406,589,
406,588,
407,584,
405,578,
402,576,
399,578,
399,577,
398,571,
396,563,
392,561,
389,562,
388,562,
388,557,
387,550,
383,547,
380,548,
379,548,
378,544,
377,538,
373,534,
371,535,
370,535,
370,531,
369,524,
366,519,
364,520,
361,520,
361,517,
359,512,
355,509,
352,513,
350,517,
349,516,
348,512,
346,511,
343,514,
341,519,
341,520,
341,516,
339,514,
337,516,
337,521,
338,521,
339,518,
338,516,
337,518,
337,523,
338,524,
340,520,
339,519,
338,521,
337,526,
338,530,
340,529,
340,527,
339,530,
339,537,
341,540,
343,537,
343,535,
342,536,
341,540,
341,542,
342,538,
343,534,
341,533,
340,535,
341,535,
343,529,
342,523,
341,519,
338,521,
338,521,
337,517,
337,511,
334,508,
332,511,
331,511,
332,507,
332,501,
330,497,
329,498,
328,498,
329,494,
328,486,
326,484,
324,484,
323,485,
325,482,
326,477,
324,475,
323,478,
323,481,
324,480,
323,475,
322,472,
320,475,
319,479,
320,480,
320,476,
319,473,
317,475,
316,480,
318,480,
319,476,
317,473,
315,474,
315,479,
316,480,
317,477,
317,474,
315,475,
314,479,
314,480,
315,477,
314,476,
311,479,
310,486,
310,491,
310,491,
309,490,
307,492,
305,496,
306,497,
307,492,
307,487,
305,486,
303,490,
304,490,
305,486,
303,481,
301,479,
299,482,
299,483,
300,478,
301,473,
299,470,
298,472,
298,474,
300,472,
300,467,
298,467,
297,470,
297,473,
299,473,
300,470,
299,471,
298,477,
298,483,
300,485,
300,482,
299,482,
297,487,
297,491,
299,491,
298,488,
297,485,
296,488,
