PPG A0,PPG A1,event_code
427,713,
425,708,
427,701,
427,694,
428,691,
427,686,
421,680,
421,673,
421,666,
419,662,
414,658,
411,649,
410,644,
406,637,
407,634,
403,629,
399,624,
395,619,
394,612,
391,610,
388,604,
382,600,
378,592,
379,586,
377,580,
374,576,
369,571,
366,562,
365,556,
364,550,
360,547,
357,540,
352,533,
352,529,
350,522,
348,518,
343,515,
341,509,
340,503,
340,503,
336,500,
331,497,
327,495,
332,491,
331,491,
329,490,
327,491,
324,490,
324,487,
327,487,
326,488,
324,488,
322,487,
322,484,
323,485,
322,487,
321,486,
315,486,
318,485,
321,484,
320,485,
319,485,
316,486,
317,482,
316,479,
317,480,
316,479,
311,479,
312,475,
311,471,
312,471,
311,470,
310,468,
309,463,
309,460,
308,459,
307,458,
308,457,
305,452,
308,450,
308,448,
307,447,
305,445,
304,441,
306,437,
306,435,
305,435,
305,432,
305,429,
307,426,
309,424,
307,424,
305,422,
305,419,
306,414,
308,415,
308,414,
304,410,
303,410,
305,405,
307,405,
306,405,
305,403,
304,400,
304,396,
305,396,
307,397,
305,398,
303,396,
304,394,
303,394,
304,395,
303,396,
301,394,
301,393,
304,391,
302,390,
303,393,
301,393,
302,392,
302,389,
301,392,
301,392,
298,391,
299,391,
298,388,
299,390,
297,392,
294,393,
292,390,
294,388,
293,389,
293,392,
289,392,
287,390,
289,388,
291,390,
289,392,
286,392,
286,390,
287,389,
289,390,
285,393,
284,393,
283,392,
284,391,
286,393,
286,394,
282,394,
283,394,
283,391,
285,393,
284,395,
283,393,
283,393,
282,390,
287,392,
286,393,
286,393,
286,392,
286,389,
289,389,
286,391,
287,391,
285,391,
286,389,
288,389,
289,391,
288,391,
285,392,
284,390,
287,390,
288,394,
285,398,
285,402,
287,404,
286,406,
288,415,
287,421,
288,430,
288,437,
294,444,
297,455,
298,467,
301,479,
302,487,
310,497,
317,511,
320,524,
323,535,
330,545,
338,554,
345,565,
352,576,
358,583,
360,589,
371,595,
380,601,
388,608,
390,611,
396,613,
402,613,
408,615,
412,618,
412,615,
416,613,
417,610,
423,609,
426,606,
426,603,
423,598,
425,592,
428,588,
424,586,
425,582,
422,576,
421,570,
422,563,
420,561,
417,558,
413,554,
412,549,
413,544,
410,542,
408,541,
404,537,
402,534,
401,528,
399,528,
395,527,
390,525,
387,519,
384,513,
384,513,
381,511,
377,508,
374,503,
373,498,
372,497,
367,495,
364,492,
360,487,
360,483,
360,481,
357,480,
352,477,
349,474,
349,470,
346,469,
343,469,
339,468,
335,463,
333,460,
334,461,
330,461,
326,460,
323,460,
324,457,
323,458,
322,458,
318,459,
317,461,
315,458,
319,459,
317,460,
316,461,
315,459,
316,457,
318,457,
318,461,
316,462,
315,460,
314,457,
317,456,
317,456,
316,455,
317,454,
317,451,
319,447,
318,448,
318,447,
317,445,
316,441,
315,440,
317,439,
317,440,
313,438,
314,435,
316,431,
316,432,
315,432,
314,430,
311,427,
314,424,
316,425,
313,423,
311,423,
311,419,
311,416,
312,416,
311,417,
309,417,
306,412,
307,412,
308,413,
303,414,
303,415,
301,413,
300,411,
301,412,
301,412,
296,411,
296,412,
298,410,
296,410,
297,410,
293,411,
290,409,
290,407,
292,407,
290,410,
289,410,
284,410,
289,408,
289,407,
290,407,
287,408,
287,407,
286,405,
289,404,
288,407,
287,406,
286,406,
286,403,
288,402,
288,404,
287,406,
285,405,
286,404,
286,402,
290,405,
288,406,
287,406,
287,405,
288,405,
288,407,
286,409,
286,408,
281,406,
282,406,
284,408,
282,410,
280,410,
278,406,
281,407,
281,407,
281,409,
279,410,
278,409,
278,408,
281,408,
277,409,
277,408,
275,408,
276,405,
281,406,
281,407,
278,407,
279,407,
281,404,
283,406,
285,410,
283,411,
282,410,
283,409,
286,411,
286,414,
285,415,
284,418,
282,419,
286,422,
287,429,
286,434,
286,437,
288,442,
292,447,
294,455,
296,462,
298,469,
298,475,
305,481,
312,490,
315,498,
318,505,
323,511,
330,514,
338,522,
342,529,
350,534,
354,534,
362,538,
369,541,
376,545,
381,547,
385,546,
393,544,
396,545,
404,545,
406,544,
408,540,
412,537,
416,538,
417,536,
416,533,
417,530,
418,527,
418,525,
420,523,
416,521,
417,517,
416,512,
414,508,
413,508,
410,506,
408,506,
406,501,
407,500,
402,500,
400,499,
394,496,
393,492,
392,490,
388,491,
387,491,
382,489,
381,485,
379,484,
377,483,
372,484,
369,482,
367,478,
366,475,
364,474,
360,474,
354,471,
350,469,
349,467,
347,467,
342,467,
337,465,
338,462,
336,461,
335,460,
331,462,
328,463,
326,460,
326,460,
324,462,
321,462,
318,463,
316,462,
317,461,
319,463,
316,464,
313,465,
313,463,
317,461,
316,462,
316,464,
312,464,
312,463,
312,461,
314,462,
314,464,
313,462,
313,462,
315,458,
318,461,
319,461,
319,461,
317,460,
318,456,
321,457,
322,460,
321,460,
319,457,
320,455,
321,453,
322,454,
320,454,
319,453,
318,450,
319,449,
317,451,
316,451,
312,449,
309,445,
311,446,
311,446,
310,445,
307,442,
305,443,
304,441,
307,441,
304,442,
303,442,
302,440,
305,438,
306,439,
304,440,
304,439,
301,435,
303,435,
303,436,
302,437,
301,438,
299,436,
299,435,
300,436,
298,438,
297,438,
294,435,
299,434,
297,436,
296,438,
294,438,
294,438,
295,436,
297,439,
296,440,
292,440,
292,440,
295,436,
295,437,
293,439,
293,441,
288,439,
290,438,
291,439,
290,440,
287,441,
285,441,
287,439,
288,438,
288,441,
286,441,
286,441,
286,439,
288,438,
288,441,
287,441,
285,441,
286,441,
286,439,
288,441,
286,442,
285,440,
284,440,
287,439,
289,441,
289,444,
290,444,
290,441,
293,442,
294,441,
292,442,
291,444,
289,440,
292,440,
289,440,
291,442,
290,442,
289,441,
289,439,
289,440,
289,442,
287,441,
285,440,
286,438,
288,441,
287,443,
283,443,
283,444,
283,442,
285,444,
285,447,
282,450,
284,449,
282,450,
289,456,
287,462,
289,466,
289,470,
291,472,
296,478,
300,484,
303,491,
304,495,
310,498,
317,502,
321,510,
328,515,
333,519,
341,521,
349,524,
356,530,
364,533,
367,534,
375,534,
382,533,
388,537,
392,539,
397,538,
404,536,
411,533,
415,535,
417,535,
420,534,
423,530,
425,529,
426,528,
426,528,
426,526,
423,523,
426,520,
427,519,
425,517,
422,516,
419,510,
419,507,
418,504,
416,505,
412,503,
408,501,
408,497,
409,497,
403,497,
400,497,
397,496,
395,492,
394,491,
391,492,
390,490,
384,488,
382,484,
382,485,
380,484,
375,484,
370,482,
367,478,
368,478,
365,478,
361,477,
356,476,
352,473,
354,472,
349,473,
347,473,
342,472,
341,472,
343,470,
340,472,
334,473,
333,473,
332,471,
331,468,
332,471,
331,475,
328,475,
327,474,
329,474,
327,476,
326,478,
326,479,
324,476,
325,476,
326,479,
324,481,
322,481,
319,479,
321,479,
322,480,
323,482,
321,482,
320,480,
321,479,
324,480,
324,481,
324,481,
324,479,
327,478,
329,478,
329,479,
325,478,
324,477,
326,474,
330,474,
329,474,
324,474,
323,473,
323,469,
325,469,
325,470,
323,470,
321,470,
320,465,
323,465,
319,466,
317,465,
314,464,
315,462,
317,462,
316,463,
313,464,
311,462,
311,460,
311,459,
310,461,
309,461,
304,461,
307,460,
304,457,
305,460,
305,462,
302,463,
299,459,
300,459,
301,462,
298,462,
296,462,
295,460,
298,461,
299,461,
296,463,
296,464,
294,463,
296,462,
295,463,
295,465,
293,467,
292,464,
294,461,
295,463,
295,467,
293,465,
292,465,
292,463,
295,465,
295,467,
293,466,
291,467,
291,464,
293,465,
293,466,
291,467,
288,467,
291,465,
291,464,
292,465,
289,466,
287,464,
287,463,
289,462,
289,464,
287,464,
288,465,
287,462,
290,462,
289,465,
289,466,
286,464,
288,463,
289,460,
293,462,
294,463,
292,462,
294,462,
297,459,
299,461,
300,463,
296,463,
296,461,
301,461,
297,462,
297,463,
295,464,
295,461,
296,460,
297,462,
296,463,
293,466,
291,464,
295,466,
294,468,
295,471,
291,473,
291,474,
294,476,
297,481,
295,486,
295,490,
298,494,
301,497,
306,502,
308,509,
311,514,
313,517,
319,521,
325,527,
330,533,
338,540,
340,543,
347,545,
355,547,
361,552,
367,554,
371,556,
377,555,
385,556,
389,559,
395,560,
397,559,
404,556,
409,554,
415,554,
417,553,
417,551,
421,547,
424,542,
427,543,
426,542,
430,540,
426,535,
429,532,
427,531,
426,529,
424,527,
419,523,
420,519,
419,518,
415,518,
412,515,
409,513,
408,509,
406,510,
402,508,
398,508,
394,505,
394,503,
391,503,
388,503,
384,503,
381,501,
381,498,
380,498,
376,498,
370,496,
367,495,
366,493,
368,493,
366,494,
362,493,
361,491,
357,488,
358,488,
355,490,
352,491,
349,490,
346,487,
348,488,
347,490,
345,491,
341,491,
341,489,
341,490,
340,493,
338,496,
334,496,
331,494,
332,495,
333,499,
330,501,
326,501,
326,500,
326,497,
327,501,
325,501,
324,502,
323,499,
324,498,
323,500,
324,501,
322,501,
321,498,
324,495,
324,496,
325,495,
325,495,
324,492,
326,492,
327,489,
329,491,
327,491,
326,490,
330,486,
331,487,
331,487,
328,485,
328,483,
331,484,
330,482,
327,483,
326,483,
324,482,
328,480,
326,479,
326,481,
324,481,
321,479,
323,476,
324,477,
323,478,
320,478,
319,477,
319,475,
319,475,
318,477,
316,478,
312,477,
312,474,
311,475,
311,476,
309,477,
307,477,
305,476,
303,473,
304,475,
303,478,
300,478,
300,475,
302,475,
301,477,
300,479,
299,480,
294,478,
301,478,
299,478,
298,479,
297,481,
296,481,
300,479,
301,480,
302,480,
300,481,
299,479,
301,479,
301,480,
302,482,
300,481,
301,481,
302,478,
303,478,
304,480,
299,478,
300,477,
300,476,
300,477,
301,479,
299,479,
296,476,
300,476,
303,477,
300,477,
300,477,
298,476,
298,474,
301,474,
298,476,
298,477,
296,477,
296,475,
296,475,
296,477,
294,478,
292,478,
292,477,
292,477,
295,481,
292,484,
289,487,
291,488,
292,489,
295,496,
296,501,
297,506,
298,508,
304,512,
309,518,
312,524,
315,530,
319,536,
328,540,
334,547,
338,553,
343,557,
347,560,
357,562,
365,566,
372,570,
375,573,
380,575,
387,573,
395,575,
399,578,
401,578,
403,578,
411,575,
417,576,
419,575,
422,572,
425,571,
428,569,
432,568,
432,567,
433,566,
430,563,
431,559,
431,556,
430,557,
428,556,
423,552,
423,549,
424,547,
421,549,
418,546,
416,545,
413,542,
412,541,
410,542,
409,541,
404,541,
400,537,
398,534,
397,534,
393,534,
385,533,
385,529,
384,526,
383,529,
379,528,
375,527,
372,524,
372,521,
370,520,
364,520,
361,519,
357,516,
358,515,
355,515,
352,516,
349,516,
343,514,
342,513,
340,513,
336,514,
333,513,
331,512,
331,512,
331,512,
330,515,
326,514,
326,514,
327,513,
326,515,
327,517,
326,517,
325,518,
329,518,
330,518,
329,519,
329,519,
328,519,
328,515,
332,517,
331,520,
330,520,
327,519,
329,517,
331,516,
329,517,
329,517,
327,517,
324,514,
330,512,
330,513,
328,514,
324,512,
327,510,
326,506,
330,508,
327,507,
327,506,
325,503,
328,502,
327,503,
323,501,
321,501,
318,499,
320,496,
321,497,
320,497,
316,496,
313,493,
316,491,
316,491,
314,492,
313,492,
309,490,
312,488,
314,489,
313,489,
311,490,
311,488,
312,486,
315,486,
312,488,
308,488,
307,486,
308,486,
309,486,
308,489,
306,487,
301,486,
303,484,
305,484,
305,486,
302,487,
299,487,
300,485,
302,485,
301,488,
299,487,
298,487,
299,486,
299,485,
299,487,
297,488,
296,489,
295,485,
296,485,
295,488,
293,488,
292,488,
292,487,
294,483,
293,487,
294,489,
294,488,
292,484,
296,484,
295,484,
294,485,
295,486,
293,481,
297,481,
297,481,
297,481,
296,481,
293,480,
296,479,
298,481,
298,481,
294,480,
294,481,
294,480,
297,484,
296,488,
295,489,
297,493,
300,493,
304,500,
306,507,
306,511,
307,518,
311,522,
318,531,
321,539,
325,548,
327,554,
332,559,
341,566,
347,576,
351,583,
356,590,
363,593,
372,598,
380,606,
384,611,
389,614,
395,615,
403,618,
410,621,
414,625,
415,626,
421,626,
427,625,
433,628,
435,629,
436,629,
438,626,
442,623,
444,625,
443,623,
444,622,
444,618,
445,616,
446,616,
444,615,
442,615,
441,610,
439,610,
439,609,
438,610,
434,609,
431,605,
429,602,
427,603,
424,605,
422,604,
418,603,
417,599,
416,600,
413,600,
407,597,
406,596,
404,593,
403,591,
400,591,
398,590,
394,587,
393,582,
392,581,
390,580,
387,580,
383,576,
383,572,
382,569,
380,568,
376,567,
372,563,
370,560,
369,558,
367,557,
365,557,
361,556,
359,553,
359,551,
357,553,
355,553,
350,552,
351,552,
348,549,
349,551,
347,552,
343,553,
342,550,
344,550,
344,553,
342,554,
339,553,
338,551,
340,551,
338,551,
339,551,
339,553,
337,550,
339,548,
339,550,
340,549,
338,549,
338,546,
340,543,
341,542,
341,544,
339,542,
339,541,
338,536,
339,536,
338,537,
334,535,
332,534,
333,531,
333,529,
330,529,
329,528,
327,525,
326,523,
326,521,
326,521,
323,520,
322,519,
321,515,
322,514,
320,515,
318,514,
314,513,
314,510,
315,509,
315,508,
311,509,
311,508,
309,505,
309,504,
311,506,
308,505,
307,504,
305,501,
306,498,
306,501,
303,500,
301,501,
303,497,
305,496,
305,497,
304,497,
303,496,
302,492,
303,492,
305,493,
305,495,
303,494,
301,491,
305,490,
306,491,
307,493,
304,494,
303,493,
304,490,
306,492,
306,494,
302,492,
304,491,
303,489,
306,491,
305,492,
303,492,
302,491,
301,488,
304,488,
306,491,
304,490,
303,489,
302,487,
303,487,
302,490,
301,490,
299,490,
299,487,
300,486,
300,488,
299,487,
296,486,
297,484,
297,482,
299,483,
297,483,
295,483,
295,481,
293,479,
296,483,
295,485,
294,486,
293,486,
297,488,
297,492,
296,497,
297,503,
297,506,
300,511,
304,520,
305,529,
307,539,
309,546,
316,555,
321,566,
324,577,
329,587,
333,595,
340,606,
349,617,
354,627,
360,637,
367,646,
374,652,
382,661,
391,669,
393,675,
401,682,
407,685,
416,690,
423,694,
427,698,
431,698,
437,699,
444,699,
446,701,
451,702,
452,702,
454,699,
459,698,
461,698,
460,699,
459,696,
459,694,
462,693,
459,693,
457,692,
456,689,
454,686,
456,684,
454,684,
451,683,
447,682,
445,680,
444,677,
444,679,
439,679,
437,679,
432,674,
435,671,
433,669,
428,669,
426,668,
421,664,
422,662,
420,660,
418,660,
415,655,
411,652,
412,647,
409,643,
404,641,
398,637,
394,631,
389,625,
390,623,
387,619,
383,616,
377,612,
375,607,
372,605,
372,602,
368,600,
363,598,
362,593,
363,591,
360,591,
358,591,
355,589,
353,586,
354,585,
353,586,
351,585,
345,584,
346,581,
346,580,
346,583,
343,583,
342,584,
342,581,
343,580,
344,583,
342,584,
341,585,
342,582,
341,579,
342,581,
342,582,
341,580,
340,578,
343,577,
342,576,
341,577,
340,574,
339,571,
339,568,
341,566,
337,564,
338,561,
334,558,
337,554,
336,552,
334,551,
332,548,
329,543,
331,540,
332,539,
331,538,
328,534,
326,532,
328,528,
327,527,
325,526,
319,523,
320,522,
318,517,
320,516,
320,515,
313,516,
309,512,
310,508,
312,508,
309,508,
307,508,
306,506,
305,504,
305,503,
305,504,
302,505,
301,504,
302,501,
303,500,
304,502,
304,502,
300,500,
301,497,
302,495,
303,497,
305,498,
300,497,
300,495,
300,491,
303,492,
300,493,
300,493,
299,490,
301,489,
302,490,
302,489,
300,491,
299,488,
301,487,
301,487,
302,489,
299,489,
298,485,
301,484,
299,485,
299,487,
298,488,
298,486,
299,485,
300,486,
299,488,
296,487,
295,486,
296,482,
297,483,
297,485,
294,484,
293,482,
293,479,
297,479,
296,480,
294,480,
294,479,
293,475,
296,475,
297,475,
295,474,
291,472,
294,468,
297,467,
296,468,
293,469,
291,468,
290,464,
291,464,
292,465,
292,465,
288,465,
289,462,
289,461,
291,465,
288,466,
288,468,
287,470,
289,472,
288,479,
288,485,
288,492,
288,498,
292,505,
297,517,
299,530,
299,543,
305,556,
312,567,
319,583,
323,598,
327,615,
333,628,
340,641,
350,657,
355,673,
361,686,
371,698,
379,709,
388,722,
396,735,
402,743,
409,752,
417,758,
425,765,
430,771,
436,777,
441,781,
445,781,
451,783,
456,787,
458,789,
459,787,
463,785,
468,784,
469,785,
469,784,
469,783,
470,778,
472,774,
471,776,
469,775,
467,774,
466,772,
463,769,
464,769,
461,768,
454,766,
454,763,
451,759,
452,759,
448,759,
444,756,
441,754,
441,749,
440,747,
436,746,
432,744,
428,739,
428,735,
423,732,
420,728,
415,724,
413,717,
411,709,
409,705,
404,701,
401,695,
396,687,
395,679,
393,673,
387,668,
385,662,
381,658,
381,650,
378,646,
374,643,
370,638,
367,634,
367,630,
367,626,
364,624,
364,623,
360,621,
358,616,
359,615,
359,616,
356,617,
354,616,
354,613,
355,614,
354,615,
352,615,
347,614,
350,613,
351,610,
352,613,
348,612,
349,610,
349,608,
347,604,
349,605,
345,602,
343,599,
343,596,
343,591,
344,591,
344,590,
339,586,
337,583,
339,578,
338,576,
339,573,
334,570,
333,565,
335,559,
334,557,
334,556,
331,553,
328,547,
329,542,
330,540,
328,538,
325,534,
321,530,
320,524,
321,521,
319,519,
313,516,
313,513,
311,508,
312,506,
311,506,
308,505,
305,503,
305,499,
309,498,
304,497,
306,495,
305,493,
306,489,
308,488,
307,487,
305,488,
303,484,
304,481,
306,478,
306,479,
305,478,
302,476,
302,475,
302,473,
304,474,
301,473,
298,473,
299,471,
299,469,
302,471,
301,471,
300,471,
299,467,
302,465,
304,467,
302,467,
303,465,
300,462,
302,460,
304,461,
303,462,
302,460,
300,457,
301,456,
302,456,
300,458,
299,456,
297,455,
298,451,
298,453,
298,454,
293,454,
293,451,
293,448,
295,448,
293,449,
291,448,
289,449,
289,447,
290,448,
291,449,
290,449,
288,447,
287,444,
289,444,
288,444,
288,444,
286,442,
287,440,
289,438,
291,439,
288,439,
288,439,
288,436,
290,434,
290,435,
290,435,
289,433,
290,431,
289,429,
290,432,
290,434,
287,434,
287,434,
289,434,
289,440,
288,444,
288,452,
287,455,
290,462,
291,472,
292,485,
293,497,
292,508,
297,522,
301,541,
304,560,
308,579,
311,596,
318,615,
326,635,
332,656,
335,675,
341,693,
350,709,
359,729,
368,747,
374,762,
381,776,
390,787,
400,800,
406,811,
413,822,
417,829,
424,833,
432,838,
437,844,
441,848,
442,848,
447,847,
452,846,
455,847,
456,845,
457,842,
458,838,
460,834,
462,832,
461,829,
459,824,
460,819,
459,814,
457,811,
455,808,
452,802,
448,798,
448,791,
448,790,
445,786,
441,782,
437,778,
437,772,
434,769,
431,767,
426,763,
423,755,
421,749,
421,747,
416,743,
412,737,
406,729,
406,722,
405,717,
401,711,
396,705,
391,697,
389,687,
389,682,
385,675,
380,668,
377,662,
373,652,
374,646,
370,644,
363,637,
359,632,
357,624,
355,619,
352,616,
349,614,
347,609,
344,604,
344,602,
342,601,
339,601,
337,597,
337,593,
339,590,
337,592,
339,590,
335,589,
336,586,
337,581,
337,583,
336,584,
333,582,
335,579,
335,575,
337,576,
336,575,
334,571,
334,567,
337,563,
337,563,
337,560,
334,558,
332,552,
337,547,
336,544,
335,542,
333,539,
331,533,
333,528,
331,523,
333,522,
330,519,
328,512,
329,507,
328,504,
326,502,
324,499,
321,494,
320,489,
319,485,
318,483,
312,480,
312,477,
313,470,
316,469,
314,467,
313,465,
310,461,
307,456,
312,453,
311,453,
310,452,
304,449,
304,445,
303,443,
303,442,
300,443,
297,441,
296,438,
298,436,
297,436,
295,434,
292,433,
294,431,
295,429,
293,429,
294,428,
293,427,
294,425,
292,420,
296,422,
296,422,
294,422,
294,420,
295,418,
295,419,
295,420,
294,421,
292,418,
295,416,
297,417,
295,418,
293,418,
293,416,
294,415,
296,416,
294,418,
292,418,
290,417,
292,415,
294,415,
293,416,
291,416,
290,416,
292,414,
293,416,
292,417,
290,416,
289,416,
289,414,
291,414,
291,415,
289,416,
289,414,
289,413,
291,414,
292,415,
289,416,
288,414,
289,413,
291,413,
291,415,
289,416,
287,414,
288,413,
289,412,
291,413,
290,412,
288,412,
288,409,
289,406,
290,407,
287,409,
285,409,
284,407,
285,404,
285,406,
284,408,
281,408,
281,409,
281,412,
282,417,
280,424,
282,432,
282,439,
283,448,
284,464,
287,479,
288,495,
289,511,
295,529,
301,552,
303,574,
307,597,
311,619,
318,640,
325,665,
333,689,
336,710,
343,730,
350,747,
361,766,
369,784,
375,801,
382,815,
392,826,
400,836,
408,847,
413,855,
417,860,
423,863,
431,864,
435,868,
438,869,
441,868,
444,865,
449,861,
448,861,
451,857,
450,851,
452,843,
453,836,
451,831,
452,824,
448,818,
449,811,
447,801,
445,798,
444,792,
440,785,
438,778,
436,769,
432,763,
431,759,
426,753,
421,745,
422,739,
421,732,
418,728,
413,722,
406,714,
406,706,
405,698,
402,692,
396,684,
392,674,
392,664,
390,656,
386,649,
380,641,
378,631,
376,621,
376,612,
372,606,
367,597,
362,590,
359,581,
359,576,
356,572,
351,566,
347,562,
346,557,
346,552,
345,550,
340,549,
339,547,
336,543,
337,541,
337,542,
336,541,
334,540,
334,538,
335,537,
334,538,
333,539,
331,539,
331,536,
331,532,
333,534,
332,534,
330,533,
327,529,
330,525,
330,525,
329,524,
326,522,
324,517,
325,513,
327,512,
325,508,
324,505,
323,500,
323,496,
326,493,
325,491,
321,486,
319,481,
320,474,
321,471,
319,467,
315,464,
314,458,
314,453,
313,448,
313,446,
309,443,
309,440,
313,436,
311,431,
310,430,
311,427,
308,424,
308,419,
308,417,
308,415,
306,415,
304,413,
303,409,
304,407,
300,407,
299,404,
296,402,
297,398,
298,395,
295,395,
295,395,
294,393,
294,390,
294,387,
294,388,
292,389,
287,389,
289,385,
289,382,
290,384,
290,384,
288,382,
286,381,
288,380,
289,381,
286,381,
286,383,
286,378,
286,379,
286,379,
286,383,
284,382,
282,381,
285,381,
285,383,
284,385,
281,386,
282,384,
283,382,
286,384,
285,385,
284,387,
282,386,
286,385,
287,386,
289,386,
286,386,
286,385,
286,385,
286,384,
285,385,
288,387,
286,386,
284,382,
289,382,
288,384,
287,383,
285,383,
286,380,
288,380,
287,381,
286,381,
284,379,
284,377,
287,377,
285,377,
283,377,
283,376,
283,372,
282,370,
284,372,
284,375,
281,374,
281,375,
283,375,
283,381,
284,386,
282,393,
279,397,
284,404,
285,416,
283,431,
287,444,
288,458,
292,473,
296,493,
299,514,
301,537,
305,558,
311,579,
317,603,
320,628,
326,652,
332,672,
338,692,
348,713,
355,733,
358,750,
362,766,
371,777,
380,790,
386,801,
391,812,
397,817,
404,820,
413,825,
417,829,
423,830,
423,829,
429,824,
435,821,
437,817,
438,811,
436,804,
440,795,
441,787,
440,780,
439,774,
434,765,
437,755,
436,745,
434,738,
432,731,
427,723,
427,713,
424,703,
424,699,
421,691,
419,686,
413,676,
414,669,
411,663,
408,656,
405,650,
400,640,
400,631,
398,625,
393,619,
390,612,
386,602,
384,593,
381,586,
379,580,
373,573,
369,564,
365,556,
363,551,
361,546,
354,539,
351,534,
347,527,
347,523,
343,521,
339,516,
337,513,
337,509,
339,507,
337,508,
335,507,
334,507,
332,503,
333,504,
330,505,
330,507,
327,507,
327,505,
327,506,
325,507,
325,509,
325,510,
326,508,
328,507,
330,508,
327,510,
325,509,
330,507,
330,506,
332,506,
332,507,
331,505,
329,500,
333,496,
332,495,
333,495,
330,491,
328,486,
331,481,
331,478,
330,475,
328,471,
326,464,
328,459,
329,455,
327,452,
323,449,
322,444,
319,438,
320,435,
319,434,
314,431,
312,426,
312,420,
313,418,
309,415,
305,412,
303,408,
302,404,
304,401,
302,400,
302,399,
298,396,
296,392,
299,389,
298,389,
296,388,
295,387,
295,383,
298,382,
298,382,
297,382,
295,380,
296,379,
297,379,
298,381,
297,382,
295,381,
295,378,
296,378,
297,380,
297,383,
294,382,
296,383,
294,381,
298,385,
294,387,
294,388,
292,385,
294,385,
294,386,
293,388,
290,388,
288,385,
291,384,
291,386,
291,388,
288,387,
287,385,
289,384,
290,383,
287,383,
286,384,
285,382,
286,380,
289,379,
289,381,
287,379,
284,378,
287,375,
289,375,
290,376,
287,374,
287,374,
290,373,
290,372,
289,376,
289,381,
289,383,
290,385,
293,391,
293,399,
293,410,
292,419,
295,428,
299,442,
302,459,
303,478,
304,495,
308,512,
312,532,
319,553,
321,574,
323,594,
331,614,
336,632,
344,655,
347,673,
352,689,
358,704,
368,717,
373,731,
379,744,
383,754,
388,758,
395,763,
401,767,
406,771,
409,772,
413,771,
419,767,
422,765,
425,762,
427,757,
427,748,
430,740,
433,732,
433,725,
432,718,
431,709,
432,698,
433,689,
431,684,
427,675,
425,667,
423,655,
423,648,
419,642,
415,634,
410,627,
408,619,
407,612,
404,607,
398,601,
392,594,
391,584,
387,577,
384,572,
379,565,
374,557,
371,550,
369,541,
365,536,
361,530,
357,524,
355,515,
352,507,
349,503,
346,500,
342,494,
339,488,
339,482,
339,482,
337,482,
333,480,
332,476,
333,475,
332,476,
330,476,
328,477,
325,474,
328,473,
329,475,
326,477,
324,477,
322,477,
323,478,
325,480,
323,481,
320,483,
317,481,
322,480,
324,484,
324,486,
322,486,
323,485,
324,482,
327,482,
325,483,
324,481,
323,479,
325,475,
329,474,
327,472,
326,470,
325,467,
325,461,
329,459,
326,458,
326,456,
323,451,
326,446,
327,441,
327,438,
324,436,
320,433,
321,428,
322,425,
321,422,
320,420,
317,416,
317,412,
316,405,
317,404,
314,403,
313,399,
307,395,
311,391,
310,391,
304,391,
304,389,
300,385,
301,382,
302,382,
302,381,
298,380,
296,377,
299,375,
300,376,
298,377,
296,376,
296,374,
296,373,
298,373,
298,375,
294,374,
293,374,
295,372,
295,373,
295,375,
292,375,
293,376,
294,374,
295,374,
295,377,
293,377,
292,376,
290,373,
293,374,
291,377,
290,378,
288,378,
288,376,
290,375,
290,377,
289,378,
287,378,
287,376,
289,376,
290,377,
288,380,
287,378,
288,376,
288,374,
289,377,
289,379,
286,380,
289,378,
290,375,
290,379,
290,383,
290,384,
287,384,
292,388,
293,396,
293,404,
291,412,
289,422,
294,430,
298,444,
301,461,
300,475,
303,489,
309,504,
314,526,
318,545,
319,564,
324,582,
331,599,
340,620,
347,638,
352,655,
358,669,
366,682,
375,696,
383,709,
388,719,
394,728,
402,733,
409,738,
415,743,
418,747,
423,748,
428,745,
435,744,
441,742,
442,742,
444,737,
448,733,
451,727,
454,722,
453,717,
451,712,
452,704,
453,696,
453,691,
452,685,
445,678,
445,670,
442,659,
442,656,
439,651,
436,645,
432,637,
433,630,
431,627,
428,624,
424,619,
419,613,
418,607,
416,604,
414,600,
408,596,
403,589,
404,582,
400,578,
395,574,
390,569,
386,561,
385,554,
383,548,
377,542,
372,535,
366,529,
367,521,
363,517,
360,512,
353,506,
353,503,
352,496,
351,494,
350,493,
348,493,
345,488,
341,485,
344,483,
342,484,
340,484,
337,484,
336,481,
340,481,
336,482,
334,481,
334,480,
332,478,
334,478,
334,480,
333,481,
331,481,
333,479,
333,477,
335,479,
334,479,
332,479,
331,475,
331,472,
333,473,
332,473,
329,472,
330,468,
329,466,
332,465,
331,464,
330,461,
326,455,
330,450,
330,449,
328,447,
327,445,
325,439,
326,435,
328,434,
327,431,
324,428,
323,423,
323,418,
323,417,
321,416,
317,413,
315,409,
315,406,
316,405,
314,405,
313,403,
310,401,
310,399,
311,396,
310,396,
308,396,
305,396,
305,393,
307,394,
305,394,
303,395,
301,394,
301,391,
300,391,
302,392,
300,392,
298,392,
297,390,
300,389,
300,390,
299,391,
297,391,
297,389,
296,386,
301,389,
299,388,
297,387,
296,384,
298,383,
298,385,
296,384,
294,385,
289,383,
295,381,
296,382,
295,382,
294,383,
293,382,
296,379,
296,379,
294,380,
293,381,
293,380,
298,377,
298,379,
297,380,
292,380,
290,380,
295,378,
294,379,
295,382,
290,381,
290,383,
291,383,
292,384,
293,388,
291,390,
290,393,
292,394,
293,399,
295,406,
294,414,
293,422,
296,429,
300,440,
301,455,
303,470,
304,483,
308,496,
314,512,
319,529,
322,546,
325,564,
333,579,
339,595,
348,614,
354,630,
358,643,
366,657,
374,665,
383,678,
391,689,
394,696,
401,703,
410,707,
418,711,
422,718,
427,720,
431,718,
438,717,
444,716,
446,716,
449,714,
447,711,
453,704,
457,703,
456,700,
458,697,
456,691,
457,684,
459,678,
459,675,
454,670,
453,664,
451,656,
453,652,
449,647,
445,644,
441,639,
439,633,
438,629,
436,625,
432,623,
427,619,
422,613,
424,607,
423,606,
419,603,
416,598,
414,592,
413,586,
410,584,
407,579,
403,573,
401,565,
399,557,
398,554,
394,547,
390,541,
387,534,
385,525,
384,520,
381,518,
377,511,
369,506,
370,501,
368,498,
366,496,
361,494,
359,490,
358,486,
358,486,
352,485,
351,484,
349,480,
351,479,
350,479,
348,478,
347,479,
344,477,
346,474,
346,475,
347,476,
345,475,
345,475,
346,473,
349,474,
349,475,
348,474,
347,474,
348,470,
350,471,
350,470,
349,471,
346,470,
346,467,
348,466,
347,466,
346,464,
344,461,
345,456,
345,453,
346,452,
343,450,
340,447,
340,443,
341,439,
340,438,
338,436,
334,433,
335,429,
333,424,
334,424,
332,422,
327,419,
326,415,
329,412,
327,412,
323,412,
320,410,
318,405,
320,405,
319,404,
317,405,
315,405,
312,403,
315,401,
315,401,
314,401,
312,402,
311,401,
312,398,
315,398,
312,398,
309,399,
307,396,
307,394,
310,397,
308,396,
305,397,
305,398,
307,395,
308,395,
306,397,
306,397,
302,395,
303,395,
303,395,
300,396,
301,397,
297,398,
297,396,
300,396,
301,396,
299,398,
297,397,
295,395,
300,394,
300,394,
297,395,
296,395,
295,393,
297,391,
297,393,
297,394,
294,394,
292,392,
293,389,
294,392,
293,393,
292,394,
288,393,
293,392,
293,391,
290,394,
290,396,
289,394,
289,391,
290,392,
288,393,
289,392,
284,389,
286,389,
286,391,
286,392,
284,393,
281,390,
283,390,
285,391,
284,395,
282,395,
282,396,
282,396,
284,402,
283,407,
281,411,
280,420,
284,427,
288,438,
290,452,
291,464,
293,477,
296,489,
303,502,
305,519,
309,537,
314,554,
318,567,
327,582,
333,599,
339,614,
345,627,
353,637,
363,647,
371,658,
378,669,
385,677,
393,681,
400,685,
410,692,
414,697,
421,697,
426,697,
433,694,
439,695,
443,693,
446,692,
447,686,
453,682,
456,679,
457,678,
455,674,
454,668,
456,663,
457,660,
455,656,
452,653,
449,647,
448,642,
449,639,
444,637,
439,634,
436,630,
435,624,
434,621,
430,619,
425,617,
422,613,
423,608,
420,606,
419,606,
415,603,
411,599,
407,593,
409,590,
407,586,
402,583,
398,576,
397,568,
396,563,
393,559,
389,554,
384,548,
382,541,
380,535,
377,531,
374,527,
370,522,
366,513,
365,506,
362,503,
357,500,
350,496,
351,491,
347,486,
348,486,
345,485,
340,483,
334,480,
334,477,
329,477,
329,479,
325,480,
322,477,
323,476,
324,478,
321,480,
319,480,
317,479,
318,477,
321,480,
318,481,
317,481,
316,480,
318,477,
318,477,
318,478,
316,477,
314,475,
316,472,
317,472,
316,472,
312,468,
311,466,
312,460,
314,459,
314,457,
313,458,
312,455,
311,449,
312,448,
312,447,
310,445,
308,441,
308,437,
308,434,
308,432,
307,432,
305,429,
304,423,
305,421,
304,421,
304,422,
301,420,
302,417,
301,414,
302,415,
300,415,
298,413,
297,409,
298,405,
298,406,
297,408,
295,408,
292,406,
294,403,
293,404,
290,404,
288,404,
286,403,
288,402,
287,403,
284,404,
282,404,
280,404,
280,404,
283,405,
279,405,
276,407,
272,406,
274,403,
277,405,
275,406,
271,405,
272,405,
273,402,
275,402,
274,406,
276,407,
271,406,
274,403,
277,404,
277,407,
275,408,
274,409,
274,405,
277,406,
278,408,
277,408,
275,408,
278,407,
278,407,
279,409,
277,411,
274,410,
275,408,
277,406,
277,409,
278,410,
275,408,
275,407,
276,405,
278,408,
276,409,
276,410,
275,406,
277,407,
278,409,
276,411,
276,411,
275,410,
277,409,
277,409,
277,412,
276,412,
273,410,
276,409,
277,410,
275,411,
276,411,
273,409,
275,407,
278,405,
277,407,
274,407,
274,406,
276,405,
278,407,
275,412,
274,412,
274,416,
274,416,
279,422,
277,428,
276,435,
276,443,
279,449,
283,460,
284,473,
285,486,
287,498,
293,508,
298,523,
301,540,
306,555,
308,570,
315,583,
322,597,
328,610,
333,623,
339,632,
347,641,
354,647,
363,655,
369,662,
373,667,
381,669,
390,668,
395,671,
399,671,
405,670,
409,666,
414,663,
419,661,
423,658,
424,655,
425,648,
429,643,
431,638,
432,633,
432,630,
430,624,
433,619,
432,615,
433,613,
429,609,
427,605,
427,599,
428,596,
425,595,
421,591,
419,588,
416,582,
418,580,
415,578,
410,577,
403,573,
404,569,
403,567,
401,566,
398,563,
393,560,
391,554,
390,550,
387,549,
382,546,
377,543,
375,538,
374,534,
369,532,
365,530,
360,527,
357,522,
356,515,
354,515,
350,514,
347,512,
346,509,
344,504,
345,506,
343,507,
339,507,
337,504,
338,502,
337,505,
336,506,
331,507,
327,507,
329,506,
326,508,
328,512,
326,512,
322,512,
327,512,
328,514,
328,516,
326,517,
327,516,
328,516,
331,517,
331,519,
328,520,
330,519,
331,515,
333,515,
337,515,
334,512,
335,512,
336,508,
341,507,
337,506,
337,504,
335,502,
335,497,
336,495,
336,493,
334,491,
333,486,
333,481,
335,478,
333,478,
331,476,
327,472,
325,467,
325,463,
324,462,
321,460,
318,456,
317,452,
315,447,
316,448,
313,447,
309,445,
306,443,
308,440,
308,441,
303,440,
303,441,
301,436,
303,435,
302,434,
301,436,
299,436,
297,434,
298,432,
297,433,
299,436,
299,435,
295,433,
297,431,
299,433,
294,434,
294,436,
294,433,
295,430,
296,432,
294,434,
289,435,
287,435,
287,433,
292,433,
287,434,
288,435,
287,434,
286,432,
290,433,
290,434,
289,434,
288,434,
288,432,
290,431,
290,431,
289,432,
286,432,
287,431,
291,430,
289,431,
288,433,
285,434,
288,431,
289,431,
290,433,
288,433,
286,432,
288,430,
286,428,
288,432,
288,433,
286,434,
286,434,
289,431,
289,433,
288,435,
288,435,
286,436,
289,438,
289,441,
289,448,
287,453,
288,457,
291,464,
294,474,
295,486,
297,496,
299,507,
301,517,
307,531,
309,548,
312,562,
318,576,
324,590,
329,605,
337,620,
342,633,
348,646,
355,654,
365,665,
371,677,
378,686,
383,693,
390,696,
399,701,
401,707,
408,712,
411,713,
417,713,
422,713,
426,715,
428,716,
430,715,
433,711,
435,706,
438,706,
439,704,
438,701,
439,697,
439,691,
439,690,
438,687,
436,684,
433,679,
435,674,
433,674,
431,669,
428,668,
425,661,
424,659,
422,656,
419,655,
416,653,
414,648,
411,644,
409,642,
408,641,
402,639,
398,635,
398,630,
398,625,
396,623,
390,620,
387,614,
387,607,
389,604,
385,600,
379,594,
378,589,
377,581,
375,575,
372,570,
368,565,
364,559,
361,551,
361,548,
359,545,
355,543,
352,539,
349,533,
348,530,
345,530,
342,528,
337,526,
333,522,
333,520,
329,521,
328,520,
323,520,
320,517,
323,517,
323,517,
321,517,
318,517,
320,517,
321,514,
323,515,
323,515,
321,515,
320,512,
322,512,
323,512,
325,512,
324,512,
322,509,
323,505,
322,503,
322,503,
320,502,
317,501,
322,496,
322,495,
321,495,
320,491,
318,486,
321,482,
321,480,
321,480,
317,476,
315,473,
320,468,
320,465,
319,464,
316,461,
314,459,
314,453,
316,452,
316,450,
313,449,
312,446,
311,441,
312,440,
311,441,
309,441,
306,440,
307,437,
307,437,
307,438,
304,438,
302,437,
300,434,
303,433,
302,435,
299,437,
296,437,
295,434,
295,432,
297,438,
295,438,
292,439,
289,437,
294,436,
294,438,
293,440,
290,439,
289,438,
290,438,
292,440,
292,442,
291,443,
290,442,
292,441,
295,440,
294,442,
293,442,
291,441,
294,438,
296,438,
297,440,
294,441,
295,441,
295,439,
299,440,
298,442,
296,440,
297,440,
298,437,
303,437,
299,436,
299,436,
298,434,
299,430,
302,431,
300,430,
300,430,
298,428,
299,427,
301,424,
301,424,
298,424,
296,420,
298,419,
298,417,
297,418,
295,418,
293,418,
293,417,
293,417,
294,422,
292,425,
290,428,
289,432,
292,436,
295,448,
294,461,
294,470,
296,480,
300,492,
304,509,
306,527,
308,543,
310,558,
318,576,
323,596,
327,616,
332,634,
338,649,
345,664,
354,680,
361,697,
364,712,
371,723,
379,733,
388,744,
393,753,
398,762,
404,768,
411,770,
415,775,
419,781,
425,782,
427,783,
430,780,
436,780,
438,780,
438,780,
437,777,
438,771,
442,768,
442,768,
441,766,
438,762,
439,757,
440,755,
441,753,
437,748,
436,745,
431,739,
434,736,
431,735,
431,734,
426,731,
425,727,
423,723,
424,723,
421,721,
417,718,
414,714,
412,708,
409,706,
406,704,
403,701,
399,694,
398,687,
396,682,
391,677,
385,670,
379,659,
383,651,
378,645,
376,637,
371,632,
366,624,
365,616,
364,610,
360,605,
355,599,
353,592,
350,584,
350,580,
348,577,
342,574,
341,570,
339,567,
340,565,
339,566,
335,565,
332,563,
332,559,
333,558,
330,558,
329,558,
326,557,
325,553,
328,553,
326,556,
325,557,
323,556,
324,554,
325,552,
328,552,
325,552,
324,551,
325,547,
324,544,
326,544,
325,542,
323,539,
324,535,
323,531,
323,530,
325,529,
323,527,
322,520,
323,514,
323,512,
322,512,
321,508,
319,503,
319,499,
321,497,
318,495,
317,492,
315,488,
316,482,
316,480,
314,478,
311,476,
308,471,
308,467,
310,466,
308,465,
304,462,
303,459,
304,454,
303,452,
300,451,
299,448,
297,446,
296,443,
301,442,
298,443,
297,442,
295,439,
296,434,
296,433,
297,433,
295,433,
293,431,
294,427,
295,427,
294,427,
292,427,
289,425,
291,425,
293,423,
292,423,
293,424,
290,423,
291,421,
291,417,
291,418,
290,419,
290,419,
288,418,
290,416,
288,418,
290,418,
289,418,
287,416,
288,412,
288,412,
287,414,
284,414,
284,410,
286,409,
287,411,
287,412,
285,412,
284,411,
286,408,
288,409,
284,409,
284,408,
284,406,
287,404,
285,405,
284,406,
281,405,
282,405,
282,402,
283,402,
282,404,
281,404,
276,403,
278,402,
280,402,
280,404,
279,406,
277,408,
278,410,
280,415,
280,423,
279,432,
279,441,
281,451,
287,463,
289,479,
291,496,
292,512,
297,532,
303,551,
306,576,
312,600,
315,624,
323,647,
329,667,
337,694,
343,718,
349,740,
355,758,
365,776,
373,796,
378,813,
385,827,
390,838,
400,846,
406,856,
412,864,
416,870,
419,871,
426,870,
432,871,
436,873,
438,873,
438,868,
443,863,
447,862,
446,857,
445,853,
446,849,
446,842,
447,835,
445,832,
442,827,
438,822,
437,815,
438,809,
435,806,
432,802,
428,799,
426,791,
424,788,
423,786,
419,782,
414,777,
412,771,
411,768,
407,764,
403,761,
397,754,
394,746,
393,738,
390,733,
389,725,
382,716,
381,707,
378,697,
377,689,
371,680,
370,671,
365,661,
363,650,
362,644,
357,635,
353,629,
347,619,
349,609,
347,604,
343,599,
339,594,
336,586,
334,580,
334,577,
330,574,
327,571,
323,565,
323,561,
324,558,
321,558,
317,558,
317,556,
318,553,
319,552,
317,551,
315,551,
313,551,
314,547,
319,547,
319,548,
317,548,
316,545,
316,540,
320,539,
322,540,
320,539,
320,536,
321,531,
323,527,
323,525,
323,522,
322,517,
322,511,
325,506,
325,504,
323,501,
321,496,
322,491,
322,484,
322,482,
321,480,
317,474,
317,469,
318,462,
319,462,
315,457,
316,454,
313,449,
314,444,
314,441,
312,440,
309,436,
307,431,
308,427,
306,424,
305,423,
300,421,
297,419,
300,414,
298,413,
298,413,
294,411,
293,409,
294,405,
295,406,
295,407,
291,405,
291,403,
292,400,
293,399,
291,402,
292,401,
290,400,
293,399,
293,397,
290,399,
291,400,
290,397,
291,394,
293,395,
292,395,
291,396,
287,395,
291,393,
293,392,
294,393,
293,395,
290,393,
290,391,
290,388,
293,389,
290,388,
288,389,
291,388,
290,385,
292,386,
292,387,
292,387,
291,383,
292,383,
293,384,
289,384,
288,384,
286,380,
288,379,
285,380,
287,381,
284,381,
284,378,
286,377,
286,378,
288,377,
285,377,
284,375,
286,372,
289,373,
288,375,
287,373,
286,371,
286,368,
289,368,
287,368,
284,367,
284,366,
285,364,
286,363,
286,366,
284,368,
282,366,
283,370,
285,373,
285,381,
282,389,
280,399,
280,407,
283,419,
285,435,
284,453,
285,473,
288,492,
294,515,
295,540,
300,566,
301,593,
308,617,
315,640,
321,667,
327,692,
330,717,
339,739,
347,757,
354,778,
360,797,
366,814,
371,824,
379,836,
386,846,
390,856,
398,863,
400,864,
407,865,
411,868,
413,869,
416,867,
419,863,
423,858,
427,853,
428,849,
428,842,
426,833,
429,823,
429,816,
429,810,
422,800,
423,791,
422,781,
421,775,
419,767,
415,760,
410,751,
411,740,
411,733,
407,727,
404,722,
399,715,
397,705,
394,699,
392,692,
389,686,
383,678,
382,668,
381,659,
379,652,
376,644,
371,633,
367,623,
368,613,
366,606,
362,597,
357,589,
356,580,
353,571,
354,566,
349,561,
345,554,
342,546,
341,540,
339,536,
336,533,
334,532,
331,527,
332,523,
331,521,
330,521,
325,520,
325,517,
325,515,
326,515,
324,515,
323,517,
319,516,
322,516,
322,514,
320,516,
319,516,
318,515,
318,514,
319,515,
321,516,
316,514,
313,513,
316,509,
318,506,
319,507,
316,507,
314,501,
315,496,
317,492,
317,489,
316,487,
316,481,
316,474,
318,470,
316,466,
315,462,
314,458,
313,452,
315,445,
315,443,
313,439,
311,434,
311,429,
310,422,
312,419,
310,417,
307,413,
307,409,
309,404,
307,404,
305,403,
302,400,
302,397,
303,392,
302,391,
299,392,
297,391,
295,386,
297,384,
298,383,
296,383,
296,382,
292,378,
293,376,
293,375,
292,374,
289,374,
288,370,
289,369,
292,369,
290,369,
287,367,
288,366,
288,364,
291,364,
291,364,
290,364,
288,365,
290,363,
292,364,
290,366,
292,368,
289,368,
286,367,
291,367,
291,370,
289,373,
287,371,
288,370,
290,370,
289,373,
288,375,
284,375,
284,374,
285,373,
285,376,
285,379,
281,378,
280,376,
280,373,
282,377,
281,378,
281,379,
275,376,
282,376,
281,377,
278,379,
279,380,
277,378,
280,377,
282,377,
282,378,
282,378,
280,376,
283,374,
286,376,
286,377,
285,377,
284,376,
284,373,
286,375,
286,375,
282,374,
281,374,
283,370,
285,372,
283,373,
280,373,
277,374,
279,376,
281,376,
278,384,
279,389,
280,395,
280,400,
283,410,
284,425,
283,440,
284,455,
284,470,
289,490,
293,511,
295,535,
294,557,
300,580,
307,604,
310,632,
312,658,
317,682,
325,704,
330,724,
337,748,
342,768,
347,785,
353,800,
361,813,
368,827,
374,838,
378,848,
383,852,
391,855,
397,859,
400,861,
403,860,
407,856,
412,849,
416,846,
417,839,
419,832,
419,825,
423,814,
424,804,
423,795,
422,785,
423,775,
423,761,
424,751,
423,743,
417,732,
415,722,
413,711,
413,701,
410,691,
406,685,
401,675,
398,665,
397,656,
394,650,
389,642,
384,633,
382,623,
381,613,
376,607,
372,599,
367,590,
363,580,
362,571,
360,564,
355,558,
349,551,
350,541,
348,533,
344,529,
343,526,
339,519,
339,514,
338,508,
337,508,
334,506,
331,505,
328,501,
327,499,
326,501,
323,503,
319,502,
318,501,
318,501,
316,503,
316,506,
313,507,
311,506,
314,504,
315,506,
312,508,
313,509,
314,509,
315,506,
318,507,
317,507,
315,506,
313,504,
314,500,
319,498,
319,497,
318,495,
316,494,
317,487,
319,486,
321,485,
319,483,
317,479,
318,473,
320,469,
320,466,
319,463,
316,457,
317,451,
317,447,
318,446,
316,443,
315,440,
312,434,
312,430,
312,429,
309,427,
306,424,
304,419,
305,416,
307,417,
303,416,
303,414,
299,410,
302,406,
303,406,
301,405,
299,405,
298,399,
299,396,
299,398,
297,396,
297,395,
293,393,
296,390,
297,389,
296,389,
294,388,
292,385,
294,382,
296,382,
294,383,
291,383,
290,381,
291,379,
294,380,
294,382,
288,382,
289,382,
289,379,
293,379,
292,380,
291,382,
290,382,
290,379,
297,378,
294,381,
294,381,
291,380,
291,376,
292,376,
292,378,
293,379,
290,379,
291,376,
292,375,
292,378,
292,380,
290,380,
291,379,
292,378,
293,380,
291,381,
290,380,
290,379,
290,376,
293,379,
292,380,
292,379,
291,376,
292,376,
291,378,
290,378,
289,377,
285,374,
287,374,
288,375,
286,375,
284,375,
282,372,
283,371,
284,370,
282,372,
279,371,
278,370,
279,366,
279,367,
278,368,
275,366,
276,367,
277,366,
278,369,
278,373,
275,376,
274,383,
275,387,
277,397,
276,409,
277,423,
277,436,
278,451,
284,469,
287,492,
288,515,
289,537,
293,560,
298,585,
302,615,
303,641,
305,667,
310,689,
316,711,
323,736,
329,757,
331,776,
338,793,
345,805,
354,821,
360,835,
365,843,
370,848,
380,852,
385,855,
390,857,
392,858,
395,855,
401,849,
406,845,
407,839,
409,831,
411,821,
415,810,
416,802,
417,792,
418,782,
418,768,
419,755,
421,744,
419,734,
416,722,
415,710,
414,698,
415,688,
412,679,
407,668,
404,659,
402,648,
401,640,
400,634,
396,626,
391,618,
387,607,
383,598,
381,593,
378,587,
374,579,
370,568,
369,560,
365,555,
362,547,
357,540,
354,532,
353,525,
349,521,
347,516,
341,511,
340,506,
338,501,
338,502,
335,500,
330,498,
330,497,
329,495,
330,497,
328,499,
325,501,
322,500,
326,501,
326,504,
324,508,
321,511,
320,510,
322,512,
322,514,
322,518,
321,521,
320,522,
323,521,
324,521,
323,524,
322,526,
320,526,
325,525,
323,523,
323,522,
319,520,
320,517,
320,512,
322,509,
319,507,
320,503,
318,497,
318,492,
318,488,
319,485,
316,481,
312,476,
314,469,
316,464,
314,459,
313,455,
310,449,
309,443,
311,438,
310,434,
306,430,
305,425,
306,419,
306,414,
307,412,
305,409,
302,408,
304,404,
303,399,
306,401,
304,400,
304,400,
301,397,
305,394,
304,393,
303,392,
302,392,
300,386,
302,387,
302,389,
300,387,
298,388,
297,386,
300,384,
300,386,
300,388,
299,386,
297,386,
299,383,
300,385,
299,387,
297,387,
295,386,
298,385,
297,387,
297,389,
294,388,
293,389,
293,387,
296,387,
295,388,
293,391,
291,391,
293,388,
294,389,
293,390,
293,391,
292,391,
293,388,
297,388,
293,389,
292,392,
289,391,
289,389,
292,388,
292,390,
291,390,
288,390,
289,388,
289,388,
288,388,
289,390,
286,390,
287,388,
289,385,
289,389,
289,391,
289,392,
288,388,
290,390,
290,392,
290,395,
290,398,
288,400,
291,404,
291,413,
291,423,
290,433,
288,442,
291,456,
291,472,
291,492,
289,512,
291,533,
298,553,
298,578,
300,603,
302,630,
304,655,
311,678,
317,702,
322,728,
327,750,
329,770,
334,787,
343,805,
348,822,
353,837,
357,849,
361,855,
368,862,
375,870,
379,875,
383,876,
386,872,
395,870,
399,868,
402,862,
403,855,
408,846,
412,833,
415,825,
418,816,
416,803,
418,790,
419,774,
424,766,
422,756,
421,743,
422,728,
421,715,
421,705,
420,697,
416,686,
413,673,
413,663,
413,654,
410,647,
405,639,
402,630,
402,621,
401,613,
395,606,
389,596,
385,588,
381,579,
380,571,
377,565,
370,558,
366,551,
363,542,
362,535,
358,530,
353,525,
348,519,
346,512,
346,508,
343,506,
339,504,
337,502,
333,499,
334,499,
332,501,
329,503,
325,503,
325,502,
327,504,
325,507,
322,509,
319,512,
317,512,
320,513,
321,517,
321,522,
320,523,
318,524,
320,523,
321,526,
319,529,
318,530,
316,529,
321,525,
321,527,
320,527,
318,528,
317,523,
319,519,
322,517,
320,514,
317,510,
317,505,
320,500,
321,497,
322,493,
319,489,
317,483,
319,476,
321,473,
320,468,
319,464,
318,458,
320,451,
321,448,
320,444,
318,439,
316,435,
317,429,
320,426,
318,423,
316,420,
314,415,
312,408,
313,405,
314,404,
312,404,
308,401,
305,397,
310,395,
306,395,
303,396,
301,394,
300,391,
300,387,
299,389,
298,389,
294,389,
294,385,
294,384,
295,385,
293,388,
291,387,
291,386,
291,383,
291,386,
291,387,
289,386,
287,383,
289,382,
290,383,
288,384,
286,384,
285,382,
286,381,
287,381,
286,383,
284,382,
281,381,
285,379,
286,382,
285,382,
283,382,
283,381,
285,379,
286,382,
287,383,
286,383,
285,382,
286,381,
288,381,
289,382,
288,382,
287,383,
288,382,
291,381,
290,383,
289,384,
286,384,
286,382,
288,383,
288,387,
286,393,
285,396,
285,400,
289,408,
288,417,
287,431,
287,443,
288,457,
291,474,
294,496,
293,518,
295,540,
296,563,
300,586,
307,615,
310,643,
313,670,
317,695,
326,718,
333,743,
339,768,
343,789,
347,806,
356,822,
362,840,
370,855,
373,869,
380,876,
388,881,
395,887,
402,892,
404,895,
409,892,
415,889,
421,885,
424,882,
427,876,
429,867,
433,857,
437,849,
438,842,
436,832,
438,821,
439,809,
443,798,
439,789,
438,780,
434,769,
433,756,
434,747,
432,738,
428,730,
424,721,
421,711,
421,701,
418,695,
414,688,
408,679,
405,669,
403,660,
401,655,
396,646,
391,638,
388,627,
385,618,
384,610,
379,603,
373,593,
371,585,
370,574,
370,569,
367,564,
364,555,
363,545,
363,540,
358,535,
359,532,
352,529,
349,523,
349,518,
348,516,
345,516,
341,516,
339,514,
339,511,
339,512,
338,515,
334,516,
333,517,
333,515,
334,517,
334,522,
330,522,
330,523,
331,521,
334,522,
333,526,
332,525,
327,525,
331,523,
335,521,
333,520,
331,520,
329,516,
330,515,
331,512,
331,511,
330,510,
327,506,
329,502,
330,496,
332,494,
332,490,
329,487,
330,479,
331,472,
330,468,
329,465,
326,459,
326,454,
325,445,
327,443,
325,440,
320,433,
321,426,
321,421,
321,416,
319,415,
314,411,
311,404,
312,400,
312,398,
310,395,
309,394,
306,390,
306,385,
305,382,
304,383,
303,382,
301,380,
300,376,
303,376,
300,376,
298,377,
293,375,
295,372,
296,371,
296,372,
292,372,
292,373,
291,371,
294,374,
293,374,
291,375,
290,375,
288,372,
293,372,
292,373,
292,375,
290,375,
292,374,
294,374,
295,375,
295,376,
291,377,
293,375,
296,376,
296,377,
296,378,
295,378,
296,377,
296,375,
298,376,
297,379,
294,378,
295,377,
295,374,
296,375,
295,376,
294,376,
295,372,
295,371,
297,372,
294,373,
293,373,
291,370,
293,369,
295,373,
294,376,
292,378,
292,380,
292,385,
295,393,
295,405,
294,416,
295,429,
296,444,
301,465,
301,486,
300,508,
304,531,
307,555,
312,583,
316,610,
318,639,
319,666,
329,694,
332,717,
337,745,
343,771,
349,793,
356,811,
365,830,
373,848,
380,862,
384,874,
393,881,
402,888,
409,897,
414,901,
419,903,
425,902,
431,899,
435,899,
441,895,
442,890,
446,883,
448,873,
452,868,
453,861,
453,852,
453,842,
455,831,
457,823,
456,815,
452,806,
451,794,
452,782,
452,775,
450,767,
447,759,
444,750,
442,740,
441,733,
437,725,
433,719,
429,711,
429,702,
427,694,
423,690,
418,683,
416,675,
414,664,
414,657,
410,651,
404,641,
401,632,
400,620,
400,611,
396,603,
393,595,
388,584,
383,572,
387,564,
382,558,
377,551,
374,544,
368,535,
369,529,
367,526,
365,522,
361,518,
359,513,
359,509,
358,510,
356,509,
349,509,
346,507,
347,506,
349,508,
347,510,
343,510,
343,510,
345,507,
344,509,
344,512,
342,513,
340,511,
343,510,
343,512,
343,513,
343,512,
340,509,
343,506,
345,506,
345,504,
345,502,
343,498,
346,491,
344,489,
345,487,
343,483,
342,477,
344,469,
345,465,
342,461,
339,455,
338,448,
338,442,
339,436,
337,434,
334,428,
332,421,
331,414,
332,409,
331,405,
329,403,
326,398,
325,391,
325,387,
324,385,
320,382,
317,379,
317,374,
318,371,
317,370,
315,369,
312,369,
313,366,
312,361,
313,362,
310,363,
310,361,
310,360,
309,356,
310,357,
308,358,
304,357,
302,354,
306,352,
306,354,
305,355,
302,355,
300,353,
302,352,
303,352,
301,354,
300,355,
297,354,
297,352,
298,353,
296,356,
295,359,
294,356,
297,355,
296,357,
297,359,
295,360,
296,359,
296,359,
298,359,
297,361,
296,360,
294,360,
294,358,
295,358,
294,361,
295,360,
291,358,
291,358,
296,358,
296,358,
295,359,
292,358,
293,357,
294,354,
294,354,
295,356,
291,356,
292,354,
294,354,
292,357,
294,362,
293,366,
295,369,
295,374,
295,385,
301,396,
298,408,
298,421,
304,435,
306,455,
307,475,
309,499,
310,518,
317,542,
323,570,
328,597,
331,624,
334,649,
344,674,
353,699,
358,726,
364,750,
370,769,
379,786,
389,806,
394,822,
402,835,
409,846,
417,853,
424,860,
432,868,
433,870,
438,873,
445,871,
452,871,
456,868,
460,867,
461,863,
464,855,
469,849,
471,845,
473,840,
470,831,
475,821,
475,812,
476,806,
474,799,
471,790,
470,780,
471,771,
469,764,
465,757,
461,750,
460,741,
458,732,
456,728,
452,724,
448,718,
446,710,
445,701,
442,698,
438,693,
434,688,
430,679,
431,669,
426,662,
422,655,
417,646,
410,634,
411,624,
410,615,
403,606,
400,595,
394,584,
394,573,
392,565,
386,556,
381,549,
376,538,
375,532,
374,527,
372,524,
364,518,
363,512,
365,507,
362,505,
360,504,
357,502,
352,500,
356,496,
358,494,
357,495,
358,496,
353,493,
355,490,
356,492,
355,493,
353,493,
351,492,
352,489,
354,487,
350,489,
354,489,
350,488,
350,484,
350,481,
350,480,
349,481,
346,478,
347,475,
346,468,
350,469,
348,466,
344,462,
345,456,
346,450,
345,447,
343,444,
341,442,
336,436,
337,429,
336,425,
334,421,
331,417,
328,411,
329,405,
329,402,
325,399,
323,396,
322,391,
321,386,
323,383,
322,382,
318,379,
316,376,
318,370,
319,369,
316,368,
312,366,
310,365,
311,361,
310,358,
308,359,
309,360,
307,359,
306,355,
307,354,
306,356,
304,356,
302,354,
302,352,
304,352,
304,352,
304,354,
300,354,
300,353,
303,352,
303,355,
303,356,
301,357,
302,355,
302,353,
305,354,
303,356,
299,354,
302,353,
303,352,
303,355,
302,357,
302,357,
300,355,
303,355,
304,356,
303,356,
299,356,
298,355,
300,354,
301,355,
300,357,
298,357,
297,356,
299,355,
301,357,
299,358,
298,359,
295,358,
298,357,
299,356,
299,358,
295,357,
295,356,
297,354,
301,355,
299,354,
297,357,
295,354,
296,352,
301,351,
295,351,
296,352,
291,355,
293,356,
295,358,
293,366,
292,373,
291,380,
293,389,
295,400,
297,414,
298,432,
299,449,
301,466,
305,488,
309,512,
314,538,
317,562,
324,587,
329,609,
338,639,
344,665,
352,691,
356,710,
367,731,
374,754,
382,773,
388,790,
395,804,
405,814,
414,826,
420,837,
427,845,
434,848,
443,850,
451,853,
456,854,
459,854,
460,851,
468,846,
471,843,
474,839,
474,835,
475,829,
477,822,
481,816,
482,810,
481,805,
480,799,
478,789,
479,781,
481,776,
478,770,
476,763,
475,752,
473,746,
472,742,
468,737,
464,730,
463,721,
462,715,
459,709,
454,704,
446,698,
445,689,
445,682,
441,676,
437,669,
431,660,
430,651,
426,639,
424,633,
422,626,
417,617,
414,606,
413,596,
411,588,
409,582,
402,575,
397,564,
397,556,
396,550,
390,545,
387,539,
383,531,
383,525,
381,521,
378,520,
374,515,
370,511,
367,507,
369,507,
366,506,
361,505,
358,503,
358,500,
358,500,
356,501,
353,501,
351,501,
351,497,
353,497,
351,499,
350,500,
345,498,
346,495,
347,494,
346,492,
345,492,
342,490,
345,485,
345,482,
342,482,
344,480,
342,478,
342,473,
344,469,
343,467,
343,465,
337,460,
340,452,
339,445,
341,441,
338,439,
337,434,
336,428,
337,420,
338,420,
335,417,
333,414,
330,408,
330,402,
329,398,
327,397,
325,394,
324,390,
323,386,
322,384,
320,381,
317,381,
314,377,
314,373,
315,372,
312,371,
309,370,
307,367,
308,363,
307,362,
305,361,
304,361,
303,361,
303,359,
305,357,
305,358,
302,358,
301,355,
301,353,
302,353,
300,352,
299,354,
299,353,
301,352,
301,351,
302,353,
301,353,
299,352,
300,350,
301,349,
302,352,
301,354,
300,355,
300,352,
304,351,
300,353,
302,358,
299,358,
300,358,
300,356,
301,359,
301,361,
298,361,
298,361,
302,361,
303,362,
302,363,
301,363,
299,361,
300,359,
300,360,
300,361,
296,361,
294,359,
297,358,
297,358,
297,359,
293,361,
293,358,
293,357,
294,357,
296,358,
293,357,
292,356,
293,354,
295,354,
293,356,
291,355,
291,354,
291,351,
294,350,
292,353,
291,353,
289,351,
289,349,
290,349,
290,354,
288,357,
284,362,
286,366,
287,372,
288,383,
288,396,
289,409,
287,420,
291,434,
293,455,
294,477,
296,498,
301,519,
304,541,
312,568,
316,594,
322,619,
327,640,
338,663,
342,686,
352,709,
357,730,
365,746,
375,760,
383,775,
390,789,
397,800,
402,807,
411,812,
418,818,
426,821,
431,824,
436,823,
442,819,
451,817,
453,816,
455,811,
458,807,
461,799,
465,792,
465,786,
464,778,
464,773,
467,763,
467,756,
464,750,
462,744,
460,738,
460,729,
461,722,
460,719,
457,714,
452,708,
452,699,
452,695,
450,691,
447,687,
443,681,
441,674,
440,670,
439,665,
434,660,
430,655,
428,646,
425,637,
423,631,
420,625,
415,616,
413,606,
410,594,
408,589,
403,583,
398,575,
392,563,
390,554,
389,549,
382,543,
378,536,
374,527,
372,519,
371,514,
366,510,
361,504,
358,500,
356,494,
355,492,
352,492,
348,489,
345,487,
346,483,
347,482,
347,484,
343,482,
344,481,
346,479,
348,479,
347,481,
346,481,
345,480,
346,478,
348,479,
346,479,
348,479,
344,477,
348,474,
349,470,
348,470,
347,469,
346,467,
347,463,
347,459,
348,459,
346,458,
345,455,
345,450,
344,445,
344,444,
341,442,
337,438,
336,434,
335,428,
334,427,
333,426,
331,424,
328,417,
331,415,
329,413,
325,411,
325,410,
324,405,
324,401,
324,399,
320,398,
318,396,
315,393,
316,388,
317,387,
315,387,
312,385,
310,382,
311,378,
310,379,
309,379,
305,377,
304,376,
304,376,
305,375,
302,376,
303,376,
301,377,
300,375,
303,375,
302,376,
302,378,
300,377,
301,374,
302,376,
303,377,
300,379,
296,378,
298,377,
301,377,
301,376,
299,378,
298,377,
298,375,
300,373,
300,375,
302,376,
298,375,
299,373,
300,372,
301,375,
300,377,
301,378,
298,375,
303,375,
301,377,
303,379,
302,379,
300,378,
302,376,
303,378,
301,379,
300,380,
298,379,
300,377,
300,378,
299,378,
298,379,
296,377,
296,377,
300,378,
297,379,
295,379,
293,376,
295,377,
294,377,
295,378,
292,377,
291,377,
292,376,
295,377,
294,381,
294,384,
290,388,
291,391,
293,398,
293,407,
293,418,
293,429,
295,441,
299,455,
302,474,
302,492,
305,512,
307,530,
315,552,
321,575,
324,598,
328,620,
337,640,
343,660,
353,682,
360,702,
366,719,
374,734,
384,747,
393,762,
401,775,
409,787,
414,793,
425,799,
431,807,
439,811,
442,813,
445,811,
452,810,
457,809,
462,807,
462,803,
460,796,
465,788,
468,782,
469,777,
466,771,
464,763,
465,751,
465,744,
463,740,
460,733,
456,726,
452,716,
454,711,
449,705,
445,700,
441,692,
439,684,
438,680,
433,676,
430,670,
425,665,
421,656,
422,651,
418,646,
415,639,
411,633,
409,622,
408,612,
406,608,
401,602,
397,594,
394,583,
393,573,
391,568,
388,560,
382,553,
380,545,
376,536,
374,533,
370,528,
367,524,
362,515,
363,508,
361,506,
357,505,
353,503,
350,499,
350,496,
349,496,
347,498,
344,497,
340,496,
341,493,
341,493,
340,496,
338,496,
336,496,
336,494,
337,493,
337,495,
333,495,
333,497,
333,492,
334,493,
332,493,
333,491,
331,489,
331,484,
333,482,
333,482,
331,480,
330,478,
329,473,
331,469,
331,467,
329,465,
327,461,
327,455,
330,450,
330,449,
329,445,
327,441,
325,436,
329,429,
326,428,
326,425,
323,421,
324,415,
322,409,
324,408,
323,405,
319,401,
318,398,
318,392,
315,391,
315,389,
312,388,
311,383,
309,379,
309,379,
307,378,
303,377,
303,375,
304,372,
304,372,
303,372,
301,372,
299,371,
299,369,
301,369,
300,370,
298,371,
297,370,
297,369,
297,369,
298,372,
294,370,
294,371,
294,370,
296,369,
295,371,
295,372,
293,372,
292,370,
293,371,
296,373,
292,375,
291,375,
289,374,
291,374,
290,375,
288,376,
285,375,
286,373,
286,373,
286,375,
285,376,
282,378,
284,376,
285,375,
282,378,
285,381,
284,380,
283,378,
287,375,
285,377,
287,379,
287,380,
286,378,
288,376,
290,376,
290,376,
288,377,
286,375,
288,373,
289,373,
288,374,
283,374,
283,372,
284,370,
284,371,
284,374,
281,372,
282,371,
282,369,
283,370,
284,372,
280,373,
282,374,
281,376,
286,380,
285,386,
285,393,
283,401,
285,408,
289,422,
291,437,
291,453,
292,470,
295,485,
300,505,
304,530,
307,553,
310,576,
316,598,
324,621,
330,647,
337,671,
342,692,
350,711,
360,728,
370,747,
375,764,
381,779,
391,788,
400,796,
407,807,
415,816,
421,821,
425,822,
433,823,
439,823,
442,824,
445,825,
448,819,
454,811,
458,810,
457,806,
459,802,
455,796,
459,787,
461,780,
457,773,
455,766,
453,757,
453,748,
453,742,
450,736,
444,729,
441,721,
438,712,
438,706,
435,700,
430,695,
425,689,
421,681,
420,676,
417,673,
412,669,
408,663,
403,657,
402,651,
399,645,
394,640,
389,632,
386,622,
384,612,
382,606,
378,600,
371,592,
369,582,
368,572,
365,567,
361,560,
355,553,
354,545,
350,535,
351,532,
347,528,
344,524,
339,518,
341,512,
340,510,
336,508,
332,509,
329,504,
329,501,
328,500,
325,502,
325,502,
322,501,
323,500,
323,498,
322,501,
320,501,
318,500,
318,497,
321,498,
318,499,
317,497,
316,496,
317,493,
320,493,
318,491,
315,488,
313,487,
315,484,
315,480,
318,479,
315,478,
312,474,
313,468,
314,466,
314,463,
312,463,
309,459,
310,453,
311,449,
311,447,
307,444,
307,440,
305,433,
306,428,
306,426,
305,424,
303,420,
303,416,
301,409,
303,408,
303,406,
301,404,
300,400,
301,395,
303,395,
302,396,
301,393,
299,391,
300,388,
301,389,
299,388,
298,388,
296,385,
298,382,
299,383,
299,383,
297,382,
295,380,
296,379,
299,380,
296,382,
294,382,
293,382,
292,380,
294,381,
291,383,
287,382,
285,382,
285,379,
286,380,
285,382,
284,384,
282,384,
282,381,
284,382,
284,383,
284,384,
281,384,
283,382,
282,382,
285,384,
282,385,
281,387,
281,384,
282,385,
283,387,
282,389,
279,389,
281,387,
280,386,
283,387,
281,389,
278,390,
279,388,
279,385,
279,388,
278,390,
278,391,
275,388,
279,387,
280,388,
278,388,
278,389,
276,387,
277,385,
278,386,
276,387,
273,387,
271,386,
275,384,
274,384,
273,385,
269,384,
266,383,
266,378,
270,379,
269,381,
265,381,
265,380,
265,376,
267,377,
267,379,
266,378,
264,377,
265,375,
268,375,
267,378,
267,383,
267,383,
269,383,
271,388,
272,396,
272,406,
271,414,
275,423,
276,436,
281,453,
282,471,
284,490,
288,510,
294,531,
300,558,
305,586,
310,613,
318,640,
323,664,
334,694,
340,722,
348,748,
355,770,
366,790,
375,813,
382,832,
389,850,
395,861,
406,873,
414,884,
417,893,
426,900,
431,904,
438,905,
445,907,
447,908,
448,905,
451,900,
454,892,
459,886,
460,879,
458,871,
458,863,
461,852,
460,843,
459,835,
456,825,
453,815,
452,803,
452,793,
449,786,
446,780,
442,770,
440,759,
440,751,
437,747,
433,740,
429,734,
427,725,
426,718,
422,714,
417,708,
413,701,
410,691,
411,683,
408,677,
404,670,
399,662,
397,652,
393,640,
391,633,
387,626,
383,617,
377,607,
379,596,
375,590,
372,583,
369,577,
362,569,
363,561,
360,558,
357,554,
354,549,
351,544,
352,541,
349,540,
346,538,
343,539,
341,537,
341,535,
339,536,
340,536,
336,539,
335,539,
336,538,
337,539,
334,540,
331,539,
329,539,
330,537,
330,537,
326,537,
327,537,
324,535,
325,530,
326,529,
324,528,
324,527,
322,523,
324,517,
326,513,
326,512,
325,509,
323,503,
325,496,
327,491,
327,488,
325,484,
322,479,
322,472,
322,465,
322,463,
319,458,
315,453,
316,446,
317,438,
316,434,
313,430,
311,426,
307,417,
309,412,
308,408,
307,406,
305,401,
301,395,
303,389,
303,388,
301,386,
298,384,
295,380,
296,375,
297,374,
295,374,
292,373,
292,370,
293,366,
294,366,
292,368,
289,366,
289,365,
288,363,
291,364,
290,366,
288,367,
285,366,
287,362,
288,363,
287,365,
285,368,
284,367,
285,364,
284,363,
282,366,
280,367,
278,368,
279,365,
281,365,
280,365,
279,367,
277,367,
278,366,
279,364,
280,367,
278,369,
276,368,
277,367,
276,364,
280,368,
277,368,
276,369,
277,366,
279,365,
279,367,
279,369,
280,370,
279,367,
279,365,
279,368,
280,370,
279,371,
279,370,
281,368,
281,369,
281,369,
281,370,
276,368,
279,365,
279,365,
279,367,
276,369,
275,367,
276,364,
277,364,
276,365,
274,364,
273,363,
275,360,
276,361,
276,363,
274,362,
272,362,
271,359,
273,361,
270,364,
269,368,
268,370,
267,373,
267,380,
267,390,
266,401,
266,413,
266,425,
270,440,
271,462,
271,485,
271,505,
275,528,
277,551,
282,578,
285,608,
287,635,
292,661,
299,686,
305,714,
309,739,
317,763,
319,782,
328,800,
335,819,
340,836,
343,851,
350,860,
357,865,
366,874,
371,881,
375,884,
377,882,
385,879,
393,878,
395,874,
396,869,
399,863,
403,851,
405,844,
406,834,
403,826,
402,815,
403,801,
404,792,
404,784,
399,774,
398,763,
397,749,
396,739,
393,730,
390,722,
386,711,
383,701,
384,692,
383,685,
378,678,
374,670,
373,659,
373,650,
372,644,
367,637,
363,628,
360,618,
357,608,
357,602,
355,595,
348,586,
349,576,
346,566,
343,560,
337,552,
334,545,
333,535,
334,527,
331,521,
327,517,
324,512,
322,505,
322,500,
320,499,
318,497,
314,497,
313,494,
314,491,
314,492,
310,493,
308,493,
305,492,
303,490,
307,493,
305,496,
300,496,
300,499,
301,497,
304,498,
303,501,
301,503,
299,502,
302,499,
303,500,
302,501,
303,502,
298,500,
302,496,
304,495,
303,495,
302,494,
302,491,
302,485,
306,481,
304,479,
304,476,
302,472,
302,466,
305,459,
306,456,
305,451,
302,446,
302,440,
303,431,
306,430,
303,426,
302,421,
300,415,
301,409,
301,405,
298,402,
296,401,
294,393,
294,388,
292,385,
290,384,
288,381,
288,377,
286,372,
286,371,
283,372,
280,370,
278,368,
277,363,
277,364,
276,365,
272,363,
272,362,
273,359,
275,358,
274,358,
272,358,
269,357,
272,354,
272,355,
272,357,
272,357,
269,357,
269,353,
272,353,
272,356,
271,357,
270,356,
269,354,
271,356,
270,357,
269,358,
266,359,
266,357,
267,357,
268,361,
266,361,
262,362,
263,361,
262,359,
263,362,
262,363,
260,365,
258,360,
260,361,
260,363,
258,367,
257,367,
254,364,
256,362,
255,362,
253,365,
254,364,
255,363,
255,360,
256,361,
254,361,
252,362,
251,361,
253,358,
256,358,
254,358,
251,358,
251,357,
254,354,
256,355,
256,357,
255,356,
256,355,
257,352,
261,354,
261,354,
261,358,
260,358,
261,356,
264,360,
263,363,
263,370,
262,374,
262,379,
266,387,
265,401,
263,415,
263,430,
264,443,
266,461,
269,485,
270,510,
271,534,
275,558,
277,583,
283,612,
286,641,
290,668,
291,692,
300,719,
306,744,
312,770,
315,792,
321,810,
331,826,
337,843,
343,858,
349,869,
353,877,
362,882,
369,885,
375,889,
381,891,
383,888,
391,883,
396,878,
400,873,
403,865,
405,856,
406,842,
412,833,
414,822,
411,812,
414,800,
414,784,
417,772,
414,761,
412,750,
410,736,
408,721,
409,708,
407,697,
404,689,
400,677,
399,663,
397,651,
394,641,
390,634,
385,624,
382,612,
381,602,
377,595,
372,586,
366,578,
361,568,
358,556,
354,549,
350,543,
343,534,
340,525,
338,514,
334,509,
329,504,
325,498,
318,491,
319,485,
316,480,
311,479,
307,477,
301,473,
305,471,
302,470,
298,471,
295,472,
292,470,
296,471,
296,473,
295,476,
292,477,
293,477,
294,476,
295,480,
295,484,
293,485,
292,487,
296,487,
299,490,
300,492,
299,494,
296,495,
300,493,
304,494,
305,496,
304,496,
304,496,
306,492,
311,490,
309,491,
309,491,
308,488,
309,483,
312,478,
313,477,
313,475,
312,472,
312,464,
313,458,
314,457,
313,453,
310,448,
311,441,
310,435,
313,434,
310,431,
309,427,
306,421,
309,415,
310,412,
308,411,
308,410,
305,403,
307,398,
308,397,
307,395,
305,394,
304,390,
304,386,
303,385,
303,384,
299,384,
297,381,
298,377,
299,376,
296,377,
293,377,
294,376,
294,373,
296,372,
295,374,
295,374,
292,374,
293,371,
295,372,
293,375,
291,377,
290,376,
288,373,
288,374,
288,376,
287,378,
286,378,
286,375,
289,374,
289,376,
291,378,
286,377,
287,374,
288,372,
289,374,
287,375,
285,375,
287,373,
287,370,
286,372,
286,373,
285,373,
283,367,
286,367,
285,367,
284,368,
281,369,
282,365,
285,363,
285,363,
284,365,
283,367,
282,366,
283,367,
282,371,
283,376,
281,382,
282,387,
286,394,
286,405,
287,419,
287,435,
289,452,
293,469,
296,491,
299,515,
301,539,
304,564,
309,589,
317,618,
320,647,
325,675,
330,701,
335,725,
342,750,
348,774,
353,797,
358,815,
364,830,
373,845,
377,858,
382,869,
386,875,
393,877,
399,879,
405,880,
410,879,
411,876,
416,868,
419,859,
424,853,
424,845,
425,834,
425,821,
429,807,
430,796,
429,785,
427,774,
425,758,
427,744,
428,733,
425,722,
422,711,
419,696,
418,684,
415,676,
414,666,
409,657,
405,646,
404,634,
402,627,
399,618,
393,609,
390,600,
389,587,
389,580,
384,573,
377,562,
375,555,
370,542,
370,535,
366,528,
363,520,
359,512,
357,502,
355,497,
350,493,
346,488,
343,484,
340,478,
340,476,
335,476,
330,477,
328,475,
325,475,
324,474,
322,476,
321,480,
318,480,
316,481,
320,481,
317,485,
317,490,
315,491,
315,493,
316,492,
316,497,
316,501,
315,504,
314,502,
318,501,
320,504,
321,507,
320,507,
321,504,
323,503,
324,505,
323,504,
322,504,
320,500,
323,495,
326,493,
325,491,
322,487,
321,482,
325,477,
326,472,
325,469,
321,465,
322,459,
322,453,
321,448,
322,444,
320,442,
317,436,
316,429,
315,426,
315,423,
312,418,
310,414,
310,407,
310,405,
309,404,
307,401,
306,398,
304,393,
305,389,
305,389,
301,389,
302,387,
301,383,
301,381,
301,383,
300,383,
297,383,
297,380,
298,377,
298,379,
299,381,
299,382,
297,377,
299,377,
297,379,
297,381,
295,382,
294,382,
295,380,
295,382,
292,383,
292,382,
291,379,
293,377,
293,377,
291,380,
290,380,
289,378,
289,376,
290,377,
289,379,
286,378,
285,376,
288,373,
288,373,
287,374,
286,374,
284,374,
285,371,
286,371,
283,373,
283,376,
282,376,
282,375,
283,377,
283,382,
281,388,
279,394,
279,400,
284,410,
284,423,
285,440,
287,457,
289,474,
294,495,
297,520,
300,547,
302,576,
307,603,
313,630,
321,663,
326,693,
333,723,
336,749,
347,776,
353,802,
361,828,
368,850,
374,866,
383,882,
392,899,
398,912,
404,924,
412,931,
419,934,
425,938,
431,939,
435,939,
438,934,
443,926,
444,921,
451,914,
450,906,
453,895,
455,882,
457,872,
456,862,
455,850,
453,838,
457,823,
457,812,
453,800,
453,789,
449,778,
448,764,
446,753,
443,744,
441,736,
437,725,
435,713,
435,704,
431,696,
428,689,
424,682,
421,672,
418,662,
415,656,
411,651,
405,644,
404,633,
400,622,
400,616,
395,607,
390,598,
388,587,
386,576,
383,569,
380,563,
375,556,
370,547,
369,539,
367,534,
364,529,
361,524,
358,517,
357,512,
357,512,
354,510,
351,511,
348,508,
349,507,
349,508,
346,509,
344,510,
343,509,
344,508,
344,510,
344,514,
340,515,
341,516,
341,515,
344,516,
341,519,
342,521,
339,519,
340,517,
344,517,
342,518,
342,521,
341,517,
340,512,
342,510,
341,509,
339,507,
337,504,
337,498,
338,492,
338,488,
335,485,
333,480,
333,472,
331,465,
331,461,
330,457,
326,451,
325,443,
326,434,
325,432,
324,428,
322,423,
318,415,
319,409,
317,406,
315,402,
314,398,
311,392,
313,387,
311,387,
313,383,
311,383,
309,379,
311,375,
312,375,
310,375,
308,375,
304,372,
307,369,
309,372,
308,373,
303,373,
304,373,
305,370,
307,370,
304,372,
301,372,
300,372,
299,368,
299,369,
297,371,
296,373,
294,372,
294,368,
296,369,
295,370,
296,371,
293,369,
294,366,
298,367,
295,367,
293,368,
289,367,
293,364,
293,362,
293,363,
291,365,
291,363,
291,361,
292,359,
294,361,
294,363,
290,364,
291,364,
293,367,
292,371,
292,379,
290,387,
290,394,
294,406,
297,421,
297,438,
298,459,
301,480,
306,502,
309,530,
314,562,
318,594,
322,624,
329,654,
337,687,
343,721,
349,753,
355,782,
365,810,
374,840,
381,866,
387,889,
395,911,
403,928,
414,945,
419,961,
426,975,
433,984,
440,987,
448,990,
453,992,
457,993,
461,992,
467,992,
473,985,
474,980,
477,975,
479,967,
481,957,
484,947,
485,941,
483,935,
483,926,
484,913,
482,902,
483,897,
480,889,
477,881,
474,869,
473,861,
472,855,
467,847,
463,842,
461,832,
461,823,
456,816,
450,811,
446,804,
445,795,
441,785,
439,777,
435,770,
431,763,
427,751,
425,739,
423,727,
419,718,
413,705,
409,694,
407,678,
405,665,
400,654,
394,641,
390,627,
389,613,
387,603,
385,594,
378,585,
375,576,
373,563,
373,556,
371,550,
367,545,
363,539,
362,531,
361,525,
360,524,
359,522,
351,520,
353,517,
354,515,
351,516,
351,518,
349,518,
349,516,
352,515,
351,517,
347,517,
347,518,
348,516,
349,513,
349,515,
345,516,
346,515,
344,513,
347,509,
348,507,
346,506,
345,505,
344,501,
347,494,
347,492,
346,488,
343,485,
341,479,
342,472,
341,467,
341,462,
337,457,
336,449,
335,441,
335,434,
336,430,
331,425,
331,419,
331,410,
331,404,
331,399,
328,394,
322,387,
322,378,
325,374,
323,371,
321,368,
319,363,
319,356,
320,355,
319,353,
315,351,
314,348,
312,343,
312,340,
312,340,
309,341,
306,340,
307,338,
306,335,
305,338,
304,340,
300,339,
301,337,
299,336,
302,338,
301,340,
301,342,
298,340,
303,340,
301,341,
300,342,
299,345,
299,342,
301,343,
302,344,
300,346,
299,347,
298,345,
300,343,
300,344,
301,346,
298,347,
298,344,
299,342,
300,344,
299,345,
295,345,
295,346,
296,344,
296,347,
298,353,
297,359,
295,366,
295,372,
298,386,
298,401,
297,421,
299,441,
298,461,
306,487,
308,515,
313,548,
315,580,
322,612,
330,646,
337,684,
341,722,
348,758,
354,792,
366,824,
374,859,
383,891,
390,919,
400,944,
410,965,
421,989,
428,992,
435,992,
440,992,
451,992,
459,992,
464,993,
470,992,
474,992,
482,993,
487,992,
493,992,
492,992,
494,993,
499,992,
503,993,
505,992,
503,992,
503,993,
504,992,
505,992,
503,993,
499,992,
499,992,
498,993,
498,993,
495,993,
491,992,
487,992,
487,992,
486,992,
482,992,
478,983,
474,971,
472,955,
471,943,
468,932,
461,918,
457,902,
452,884,
453,866,
450,852,
444,835,
439,814,
435,794,
434,772,
429,754,
425,735,
420,715,
417,693,
414,669,
412,653,
408,636,
404,619,
400,600,
398,582,
396,570,
391,558,
387,547,
383,532,
384,522,
379,515,
373,507,
371,501,
368,496,
367,489,
366,488,
363,487,
360,487,
359,484,
358,480,
359,482,
356,484,
355,483,
352,483,
351,479,
353,481,
352,482,
348,480,
349,480,
349,478,
352,477,
353,476,
349,474,
347,470,
347,464,
349,460,
348,456,
346,453,
344,449,
344,440,
345,434,
342,430,
339,424,
337,418,
336,409,
337,401,
336,396,
332,391,
330,385,
330,376,
328,368,
328,366,
326,361,
323,355,
322,349,
323,340,
322,337,
320,335,
319,330,
316,324,
315,319,
315,316,
314,314,
311,312,
306,307,
309,302,
310,302,
305,298,
304,298,
300,295,
302,292,
302,290,
299,290,
298,289,
297,289,
298,286,
298,289,
296,288,
291,288,
290,288,
292,285,
297,285,
295,288,
295,289,
292,290,
293,288,
296,290,
295,293,
296,295,
293,294,
293,292,
294,292,
293,295,
293,297,
291,297,
292,294,
293,294,
295,296,
292,298,
293,298,
295,294,
296,293,
297,294,
297,295,
295,293,
296,290,
296,286,
297,288,
294,291,
293,290,
292,288,
294,287,
294,289,
292,289,
290,291,
290,289,
291,291,
292,296,
290,302,
288,310,
287,317,
291,328,
292,343,
293,363,
293,384,
295,405,
300,429,
305,459,
307,493,
312,528,
319,566,
327,604,
336,645,
343,689,
349,732,
357,773,
368,811,
380,852,
389,890,
400,929,
409,962,
419,989,
432,992,
441,992,
449,992,
457,992,
464,993,
475,993,
482,992,
489,992,
491,992,
496,992,
502,993,
506,992,
507,992,
510,992,
515,992,
517,992,
520,993,
521,993,
519,992,
519,992,
522,992,
519,992,
516,992,
513,993,
510,992,
510,992,
507,992,
503,992,
501,992,
498,992,
496,992,
493,993,
491,992,
486,993,
484,993,
482,992,
481,992,
476,992,
471,992,
467,992,
463,992,
462,992,
458,992,
452,992,
448,992,
445,992,
441,969,
439,941,
434,913,
429,882,
426,848,
423,817,
417,788,
412,759,
405,730,
401,700,
401,672,
395,648,
391,626,
386,604,
382,580,
380,559,
378,544,
374,529,
369,515,
368,501,
366,486,
366,479,
363,472,
360,466,
357,459,
358,451,
358,449,
356,446,
356,444,
353,439,
357,435,
356,434,
353,433,
355,432,
351,429,
353,424,
355,423,
353,422,
352,420,
351,417,
352,411,
353,410,
352,409,
348,406,
348,401,
350,397,
349,395,
345,393,
342,389,
341,385,
342,379,
342,377,
339,374,
339,373,
337,369,
334,362,
337,362,
337,361,
335,360,
331,358,
330,354,
331,353,
329,353,
328,354,
324,353,
324,351,
325,351,
322,353,
320,355,
318,354,
318,352,
317,351,
318,353,
315,354,
313,354,
311,352,
313,348,
313,350,
309,350,
307,349,
302,347,
307,343,
304,341,
303,340,
299,338,
298,333,
298,328,
296,326,
295,324,
290,321,
289,317,
291,314,
290,310,
285,309,
285,308,
284,304,
283,300,
284,297,
282,296,
278,293,
278,289,
278,283,
280,281,
278,281,
278,280,
277,276,
278,272,
282,270,
280,269,
280,269,
278,266,
279,262,
283,261,
283,262,
284,262,
282,261,
282,258,
284,258,
284,257,
284,260,
283,258,
282,254,
284,251,
286,253,
284,255,
283,254,
285,253,
284,249,
286,252,
284,252,
284,252,
283,249,
284,245,
281,247,
282,248,
280,247,
279,244,
280,242,
280,243,
280,245,
277,249,
275,249,
275,253,
278,260,
276,270,
276,282,
276,296,
279,311,
282,334,
282,363,
283,392,
286,426,
291,458,
301,498,
303,540,
309,584,
316,629,
324,671,
335,717,
344,766,
355,813,
364,854,
374,890,
384,929,
397,968,
405,992,
415,992,
426,992,
437,992,
445,992,
454,993,
463,992,
471,992,
480,992,
485,993,
492,992,
496,992,
500,992,
503,992,
507,992,
508,992,
509,992,
509,992,
512,992,
510,992,
508,992,
505,993,
502,993,
502,992,
501,992,
497,993,
491,992,
487,992,
487,992,
483,992,
479,992,
475,993,
471,993,
471,992,
464,992,
458,993,
455,993,
450,993,
448,992,
445,992,
440,993,
434,963,
429,938,
425,909,
425,883,
417,856,
413,828,
407,797,
404,767,
402,738,
395,711,
392,684,
386,658,
379,629,
379,605,
374,584,
369,565,
364,546,
359,527,
358,509,
354,496,
351,484,
344,473,
344,461,
342,451,
343,447,
341,443,
337,437,
334,433,
337,427,
336,427,
334,426,
334,426,
331,422,
335,419,
334,418,
334,419,
332,419,
331,418,
334,415,
335,416,
336,416,
334,417,
334,413,
335,409,
336,407,
336,406,
332,404,
331,399,
331,394,
331,392,
331,388,
327,384,
325,379,
326,374,
328,369,
326,366,
325,361,
321,354,
320,346,
321,340,
319,338,
316,334,
311,328,
312,319,
312,313,
310,311,
308,307,
306,302,
304,293,
305,290,
304,288,
301,286,
298,282,
298,278,
297,274,
296,275,
294,275,
291,272,
290,269,
290,264,
290,264,
290,264,
288,264,
286,260,
287,260,
288,259,
286,260,
285,261,
282,258,
286,255,
284,255,
284,256,
282,256,
279,255,
284,253,
285,253,
284,256,
282,256,
278,257,
280,254,
282,254,
280,256,
278,258,
277,257,
278,255,
279,256,
278,258,
276,259,
275,260,
274,258,
279,258,
278,261,
278,263,
274,262,
274,260,
277,261,
277,265,
275,267,
274,267,
275,267,
276,267,
276,269,
274,271,
273,272,
273,270,
276,269,
276,272,
274,275,
270,274,
274,273,
274,270,
275,274,
274,274,
273,275,
272,273,
273,271,
273,272,
272,274,
270,274,
269,271,
271,271,
272,272,
271,273,
268,273,
267,271,
272,270,
270,272,
267,272,
266,274,
265,276,
267,275,
269,281,
267,290,
267,297,
267,307,
269,317,
274,333,
274,354,
274,375,
277,401,
280,426,
285,456,
289,493,
293,530,
299,565,
305,602,
317,642,
322,684,
331,726,
338,765,
347,800,
360,835,
367,872,
377,905,
387,936,
397,960,
409,982,
416,993,
425,993,
433,992,
443,992,
450,992,
460,992,
464,992,
467,992,
472,992,
477,993,
480,992,
484,993,
484,992,
485,992,
488,992,
490,992,
487,993,
485,993,
484,992,
483,992,
485,983,
482,970,
476,957,
472,942,
471,925,
470,912,
466,896,
459,883,
454,869,
450,852,
448,838,
443,825,
435,811,
433,797,
430,780,
424,764,
421,749,
416,734,
409,714,
406,694,
402,675,
398,659,
392,642,
385,624,
382,603,
380,585,
375,569,
372,555,
364,539,
360,522,
359,506,
355,496,
351,486,
347,476,
344,465,
341,455,
340,450,
338,448,
331,444,
331,439,
332,432,
331,432,
327,433,
326,431,
322,428,
323,427,
321,428,
321,429,
320,429,
319,427,
321,425,
320,425,
319,425,
318,426,
317,425,
318,423,
320,424,
319,424,
317,424,
318,424,
319,420,
320,420,
320,420,
318,418,
317,415,
318,410,
320,409,
319,408,
318,404,
316,400,
317,393,
317,389,
317,388,
315,384,
313,379,
313,372,
316,368,
314,364,
312,360,
309,354,
309,347,
310,341,
310,338,
308,334,
302,328,
302,322,
300,316,
299,315,
294,313,
291,309,
290,304,
289,297,
290,297,
288,295,
287,292,
285,289,
286,283,
285,282,
284,282,
282,279,
281,275,
283,272,
283,272,
282,273,
279,271,
278,269,
278,264,
280,264,
278,265,
276,266,
276,263,
277,260,
276,261,
274,264,
272,264,
272,264,
270,260,
273,262,
274,264,
272,264,
270,264,
271,262,
272,263,
272,268,
270,269,
268,270,
269,269,
271,269,
268,272,
267,273,
266,273,
267,271,
268,270,
268,275,
270,277,
268,278,
269,275,
273,274,
273,278,
272,280,
272,280,
272,279,
271,277,
273,280,
273,283,
273,283,
272,283,
275,283,
274,287,
273,288,
272,291,
271,287,
273,287,
274,288,
273,290,
273,292,
270,291,
271,288,
272,290,
269,290,
268,291,
266,290,
269,287,
267,289,
265,290,
262,290,
260,289,
259,286,
261,287,
259,290,
255,291,
255,294,
255,295,
257,302,
257,311,
258,322,
258,333,
259,344,
263,363,
266,385,
268,408,
271,434,
276,458,
282,486,
288,519,
293,554,
299,588,
307,621,
317,655,
326,691,
335,728,
342,758,
353,786,
364,814,
374,842,
383,867,
392,889,
401,907,
413,920,
422,935,
430,948,
437,957,
441,959,
452,960,
458,961,
462,962,
466,958,
467,950,
474,942,
477,935,
475,926,
476,916,
476,903,
477,887,
476,874,
473,864,
469,853,
465,840,
464,823,
463,812,
458,802,
450,789,
447,778,
445,762,
444,752,
436,742,
433,733,
427,721,
423,706,
422,698,
416,691,
411,683,
405,673,
400,660,
399,650,
394,641,
390,631,
384,620,
381,607,
378,594,
371,584,
368,574,
361,562,
359,548,
355,535,
350,525,
347,515,
342,505,
336,494,
336,483,
334,479,
330,473,
327,469,
324,462,
323,456,
322,455,
320,454,
318,452,
316,449,
316,445,
317,444,
316,447,
314,448,
312,446,
314,445,
313,446,
313,449,
311,450,
313,449,
312,447,
315,448,
313,450,
312,450,
310,449,
311,447,
313,447,
313,448,
313,448,
309,446,
315,443,
315,441,
317,440,
314,439,
313,436,
314,428,
316,425,
315,422,
313,419,
311,414,
312,408,
312,401,
311,398,
312,394,
304,390,
306,382,
305,375,
305,373,
302,370,
299,364,
300,356,
297,351,
298,351,
296,348,
293,344,
290,339,
291,336,
289,331,
289,331,
286,331,
283,327,
284,323,
284,323,
283,323,
281,322,
278,319,
279,316,
278,317,
274,317,
273,318,
271,316,
273,313,
272,315,
271,316,
268,318,
267,319,
269,316,
271,318,
270,320,
268,320,
267,321,
269,319,
270,321,
271,325,
270,326,
271,326,
270,323,
275,324,
273,327,
272,328,
269,328,
272,325,
273,327,
275,328,
272,329,
272,329,
272,326,
274,326,
273,327,
272,328,
268,326,
272,324,
271,321,
271,321,
270,323,
269,322,
270,320,
272,317,
272,318,
271,320,
270,320,
269,316,
273,314,
273,314,
272,314,
271,315,
270,313,
271,312,
271,315,
272,320,
269,324,
269,329,
271,336,
274,348,
273,363,
273,379,
274,395,
279,413,
283,439,
285,465,
285,493,
290,523,
299,552,
305,583,
310,618,
318,652,
323,684,
333,713,
343,743,
351,775,
360,804,
367,828,
377,849,
388,870,
397,890,
405,906,
412,917,
422,924,
431,930,
439,935,
444,938,
449,938,
456,933,
459,926,
466,923,
467,916,
467,906,
470,895,
470,880,
472,870,
471,860,
470,846,
467,830,
467,815,
465,803,
462,791,
456,779,
452,764,
450,751,
444,740,
439,730,
432,719,
425,707,
422,693,
418,683,
412,675,
406,665,
403,654,
399,640,
395,629,
391,620,
384,608,
380,596,
376,581,
373,570,
367,560,
360,551,
355,541,
350,526,
349,516,
342,508,
338,500,
332,491,
329,480,
327,475,
325,470,
319,467,
316,462,
314,458,
314,454,
313,456,
310,456,
309,457,
306,456,
307,457,
307,460,
306,463,
304,464,
304,465,
306,464,
309,469,
309,472,
310,475,
310,475,
314,475,
315,479,
316,482,
314,483,
316,480,
317,478,
318,479,
318,479,
316,480,
316,476,
318,471,
319,470,
318,469,
316,467,
316,463,
316,456,
318,452,
317,448,
313,444,
312,439,
312,431,
313,425,
311,421,
309,416,
307,411,
306,403,
306,398,
306,395,
303,389,
303,383,
299,374,
301,369,
300,366,
297,363,
295,358,
293,349,
295,346,
293,345,
291,342,
289,339,
289,334,
290,330,
290,332,
287,331,
284,330,
283,328,
282,325,
283,328,
281,329,
277,328,
277,326,
278,323,
277,325,
274,327,
273,328,
273,326,
273,324,
273,325,
273,327,
272,329,
271,327,
272,324,
273,326,
272,329,
271,330,
269,329,
269,327,
273,328,
272,332,
270,332,
267,332,
270,330,
271,332,
272,333,
270,332,
269,332,
269,330,
272,332,
270,333,
269,334,
265,333,
268,330,
271,330,
270,331,
268,332,
267,331,
267,328,
270,329,
270,332,
270,337,
267,339,
268,343,
270,352,
272,364,
272,378,
274,393,
276,408,
280,427,
285,453,
286,479,
288,508,
293,537,
300,566,
304,603,
313,641,
319,677,
326,709,
336,744,
343,779,
353,814,
361,846,
370,875,
381,899,
393,926,
401,950,
408,970,
416,985,
427,992,
437,993,
446,992,
451,992,
458,992,
466,992,
474,992,
476,992,
479,992,
481,993,
483,992,
486,992,
486,987,
486,976,
485,965,
485,952,
485,939,
481,928,
483,918,
478,906,
476,891,
475,878,
471,867,
466,858,
459,846,
458,832,
454,822,
451,813,
447,805,
440,795,
435,783,
431,771,
426,762,
421,754,
413,742,
408,729,
405,715,
402,705,
396,693,
392,680,
385,665,
384,648,
379,635,
373,622,
369,610,
363,593,
361,578,
359,566,
353,557,
348,546,
342,535,
342,523,
339,514,
335,509,
332,503,
329,496,
327,490,
327,489,
326,489,
322,488,
320,488,
321,485,
320,486,
322,489,
318,490,
317,492,
317,491,
320,493,
319,497,
318,498,
317,497,
318,493,
320,495,
318,496,
319,498,
318,497,
319,493,
322,492,
320,490,
319,488,
317,485,
318,479,
320,473,
320,471,
320,469,
317,464,
319,455,
319,448,
321,444,
319,441,
315,434,
318,427,
317,418,
315,414,
314,409,
313,404,
311,395,
310,389,
310,385,
307,382,
306,377,
303,370,
303,363,
302,359,
298,356,
296,352,
293,345,
292,340,
290,338,
289,335,
286,333,
285,330,
286,325,
286,324,
283,324,
277,321,
278,319,
279,315,
280,314,
279,316,
278,316,
277,314,
276,311,
280,312,
279,314,
277,316,
278,316,
279,313,
279,314,
279,316,
278,318,
277,318,
278,317,
280,318,
279,319,
279,322,
279,322,
278,320,
280,319,
276,321,
278,324,
276,325,
276,323,
275,321,
274,324,
276,326,
272,327,
270,325,
274,323,
272,323,
271,324,
270,325,
269,324,
271,322,
271,323,
271,326,
271,330,
271,329,
273,331,
273,337,
274,345,
272,355,
272,364,
276,377,
278,397,
283,420,
283,444,
288,472,
293,498,
301,533,
306,570,
311,608,
316,647,
325,685,
336,728,
345,772,
354,813,
363,852,
375,887,
386,923,
399,959,
407,991,
417,993,
428,991,
439,992,
449,992,
459,993,
465,993,
474,992,
484,992,
491,992,
496,992,
498,992,
505,992,
507,992,
512,992,
512,993,
512,992,
512,991,
513,992,
512,992,
508,992,
507,992,
506,992,
503,992,
501,992,
497,993,
491,992,
486,993,
483,992,
479,992,
474,993,
468,992,
463,993,
459,992,
457,992,
452,992,
445,992,
440,992,
439,993,
435,992,
430,992,
424,993,
419,992,
413,972,
414,949,
410,923,
402,899,
397,871,
393,841,
389,814,
383,788,
377,762,
370,735,
368,708,
364,682,
361,660,
356,640,
352,619,
349,597,
346,577,
343,560,
338,549,
332,534,
332,521,
329,507,
329,500,
327,494,
323,487,
321,480,
323,473,
320,472,
322,471,
321,470,
317,464,
321,461,
321,462,
320,464,
319,464,
318,462,
319,459,
318,460,
318,461,
315,461,
313,457,
313,454,
313,453,
313,453,
309,451,
307,447,
307,441,
312,440,
309,437,
306,433,
306,428,
306,421,
307,415,
305,412,
305,407,
301,400,
300,392,
302,386,
300,381,
297,376,
295,369,
294,359,
298,354,
292,349,
293,345,
292,340,
290,331,
291,326,
288,322,
287,320,
281,315,
284,309,
283,304,
281,301,
284,299,
278,295,
278,290,
278,285,
279,285,
282,284,
278,283,
276,278,
278,275,
278,275,
276,276,
275,276,
274,275,
276,272,
274,274,
274,276,
272,276,
272,275,
274,273,
274,274,
272,279,
269,279,
269,278,
270,276,
271,278,
270,281,
266,283,
267,281,
268,281,
270,282,
269,284,
268,284,
265,283,
265,279,
267,279,
266,280,
266,282,
263,281,
264,278,
266,277,
265,279,
263,279,
263,278,
262,275,
265,275,
265,276,
262,278,
262,277,
261,274,
264,273,
262,277,
263,281,
261,285,
263,288,
263,292,
267,304,
267,317,
266,333,
269,347,
273,368,
277,396,
278,425,
282,457,
285,488,
291,526,
298,567,
304,612,
309,657,
318,701,
328,743,
339,788,
349,833,
357,877,
365,914,
378,951,
390,985,
400,993,
409,992,
419,992,
430,993,
442,993,
451,992,
457,993,
465,993,
474,992,
484,992,
490,993,
493,993,
495,992,
502,992,
507,992,
507,992,
507,993,
507,993,
507,993,
507,993,
505,993,
502,992,
498,992,
497,993,
496,992,
492,992,
486,992,
481,993,
479,993,
477,993,
474,992,
468,992,
462,992,
458,992,
456,993,
451,992,
447,992,
441,993,
437,992,
433,992,
431,992,
426,992,
420,992,
415,969,
412,941,
409,914,
403,887,
396,858,
389,827,
388,795,
382,764,
377,737,
371,708,
368,678,
364,648,
361,623,
359,599,
352,576,
350,555,
349,533,
347,515,
344,500,
340,486,
336,472,
334,458,
333,449,
331,443,
327,439,
323,433,
323,426,
324,422,
319,422,
320,422,
316,421,
318,417,
319,415,
319,417,
315,420,
315,420,
316,417,
316,417,
317,418,
316,420,
313,418,
314,415,
315,410,
316,410,
315,408,
315,407,
312,401,
314,396,
314,393,
313,391,
315,386,
310,379,
312,372,
311,367,
311,363,
309,358,
306,351,
307,342,
307,338,
306,333,
301,327,
299,320,
298,313,
299,310,
295,307,
291,302,
291,298,
290,291,
289,288,
288,287,
286,283,
284,281,
285,275,
286,273,
286,271,
284,270,
281,267,
280,263,
281,261,
281,261,
278,261,
275,259,
275,255,
276,253,
276,255,
275,256,
273,256,
272,252,
276,250,
273,252,
271,252,
271,253,
271,250,
272,248,
272,251,
272,252,
270,251,
267,251,
272,245,
271,248,
269,248,
269,248,
267,244,
271,243,
270,244,
268,246,
267,247,
266,245,
267,244,
270,245,
268,248,
267,250,
265,249,
268,246,
268,248,
269,252,
267,254,
267,254,
268,252,
272,254,
271,256,
267,257,
268,258,
267,254,
268,254,
265,256,
266,259,
264,258,
265,255,
267,254,
265,256,
263,257,
261,257,
261,255,
262,255,
263,256,
264,258,
260,257,
261,254,
262,255,
263,255,
262,258,
259,258,
260,258,
258,258,
261,262,
261,270,
259,276,
261,282,
263,291,
266,309,
266,329,
271,349,
270,371,
276,397,
281,429,
284,464,
288,500,
291,535,
301,573,
310,616,
316,660,
326,703,
334,746,
346,785,
358,826,
370,866,
380,902,
390,934,
405,962,
419,989,
428,992,
437,992,
447,992,
457,992,
468,993,
471,992,
481,992,
487,993,
492,992,
499,992,
500,992,
504,992,
503,992,
508,993,
508,993,
510,992,
507,993,
504,992,
503,992,
501,992,
497,992,
494,992,
488,993,
486,993,
483,992,
477,992,
475,993,
468,992,
464,974,
460,957,
457,946,
454,934,
447,917,
442,899,
441,882,
436,866,
433,851,
425,834,
420,815,
419,793,
415,775,
411,756,
406,735,
399,713,
395,688,
392,669,
387,648,
382,629,
377,607,
372,587,
372,568,
367,552,
361,537,
356,522,
354,504,
352,492,
348,481,
342,471,
339,462,
336,450,
336,444,
333,440,
330,437,
328,433,
326,429,
327,424,
323,425,
323,425,
320,424,
320,422,
322,420,
323,422,
320,424,
317,424,
319,422,
320,422,
320,425,
319,426,
317,425,
319,422,
318,419,
320,420,
319,420,
319,419,
319,414,
321,411,
321,408,
321,408,
321,404,
320,397,
322,391,
321,386,
318,382,
316,378,
313,371,
315,362,
312,357,
310,353,
305,348,
303,341,
305,332,
303,328,
301,323,
297,319,
295,311,
295,304,
295,302,
293,298,
289,295,
289,290,
289,284,
289,280,
287,278,
286,275,
283,271,
283,265,
283,263,
284,263,
281,262,
279,260,
280,255,
281,254,
281,255,
279,256,
279,255,
278,251,
280,251,
279,252,
278,253,
274,254,
276,252,
276,250,
275,252,
274,253,
271,252,
272,251,
272,247,
273,249,
271,251,
269,253,
267,250,
269,249,
269,248,
267,251,
267,253,
267,252,
269,249,
270,252,
269,254,
269,255,
267,254,
270,253,
269,254,
272,257,
269,259,
266,257,
268,256,
269,259,
269,261,
266,262,
267,263,
271,261,
270,262,
271,265,
269,267,
269,267,
269,265,
271,265,
270,270,
269,271,
267,272,
268,268,
268,269,
269,272,
267,275,
265,273,
264,272,
265,274,
264,275,
263,276,
261,277,
260,274,
261,273,
261,275,
260,275,
256,275,
257,273,
259,269,
260,272,
259,272,
258,272,
257,270,
258,268,
259,269,
258,272,
256,272,
253,272,
258,273,
260,279,
259,288,
258,296,
260,305,
263,316,
267,333,
268,352,
270,376,
273,397,
279,423,
285,454,
289,488,
294,521,
300,557,
308,588,
320,627,
327,666,
335,702,
344,739,
355,769,
367,801,
378,833,
388,863,
398,888,
408,909,
421,928,
428,947,
439,962,
446,972,
456,976,
465,980,
472,984,
477,985,
481,985,
486,977,
491,968,
492,962,
495,955,
491,943,
491,930,
491,916,
491,909,
487,896,
485,884,
481,869,
482,855,
479,845,
473,834,
470,822,
464,807,
461,793,
457,783,
451,772,
447,762,
442,750,
441,737,
438,729,
433,721,
428,711,
422,699,
419,687,
416,677,
412,668,
404,656,
400,644,
397,630,
396,618,
390,608,
383,594,
379,582,
377,566,
371,554,
368,544,
364,533,
359,522,
357,506,
356,496,
349,487,
345,482,
340,474,
338,466,
334,460,
334,457,
330,453,
326,449,
326,445,
325,440,
324,440,
320,440,
318,439,
319,437,
318,434,
319,436,
319,439,
316,440,
317,439,
319,436,
320,438,
320,441,
320,441,
316,438,
322,437,
325,437,
324,437,
322,437,
323,434,
324,431,
325,430,
323,428,
321,425,
318,420,
322,415,
321,410,
320,407,
318,403,
317,397,
320,391,
319,387,
317,382,
312,376,
313,371,
311,361,
313,357,
311,353,
309,348,
306,344,
303,335,
304,332,
302,329,
301,326,
298,321,
296,314,
295,310,
295,310,
291,308,
290,306,
289,301,
289,297,
288,298,
286,298,
284,297,
285,293,
285,292,
285,293,
283,293,
282,291,
281,290,
280,287,
282,289,
279,292,
279,292,
278,290,
281,290,
283,292,
281,294,
279,296,
279,291,
278,291,
277,292,
275,295,
273,295,
272,294,
271,293,
272,296,
271,297,
270,300,
268,299,
272,297,
271,299,
269,301,
268,302,
266,299,
267,298,
269,299,
270,301,
267,301,
267,302,
270,301,
272,300,
270,302,
271,303,
268,302,
268,298,
269,299,
269,299,
268,301,
267,301,
269,298,
274,299,
271,300,
272,301,
273,301,
273,299,
276,299,
277,299,
277,300,
274,299,
275,297,
275,294,
276,295,
274,297,
273,295,
273,293,
274,290,
276,291,
275,294,
273,292,
269,290,
273,288,
271,288,
268,288,
269,288,
268,287,
268,286,
268,285,
267,290,
264,293,
262,294,
264,297,
265,304,
267,314,
263,323,
266,334,
268,343,
270,361,
272,380,
271,400,
274,424,
278,445,
283,473,
286,502,
291,531,
297,560,
305,585,
315,615,
321,649,
330,676,
338,703,
348,725,
360,749,
370,773,
379,792,
388,809,
398,822,
409,833,
416,844,
426,852,
432,857,
441,856,
448,855,
456,854,
462,851,
464,846,
469,838,
473,827,
475,819,
477,811,
476,799,
476,784,
476,771,
474,759,
470,750,
466,738,
466,724,
464,710,
462,698,
457,689,
452,680,
447,668,
443,657,
439,648,
433,641,
427,634,
420,624,
418,615,
415,608,
408,602,
401,597,
397,588,
392,577,
389,570,
385,563,
378,556,
372,546,
368,534,
364,526,
359,518,
355,511,
349,500,
344,490,
344,483,
341,479,
337,472,
332,467,
330,458,
329,451,
326,449,
323,446,
321,441,
319,435,
319,431,
318,433,
315,433,
313,433,
314,431,
314,428,
316,430,
314,431,
314,434,
314,432,
317,432,
316,435,
314,437,
315,440,
313,439,
314,439,
314,440,
313,443,
313,443,
312,442,
312,440,
313,440,
314,440,
311,440,
312,438,
311,433,
314,432,
314,430,
309,428,
310,423,
314,417,
313,414,
312,409,
311,406,
309,402,
309,395,
311,391,
308,389,
307,387,
305,381,
304,376,
308,373,
306,371,
304,370,
302,366,
302,358,
303,355,
302,353,
299,353,
295,350,
296,346,
296,342,
296,342,
293,342,
292,339,
289,335,
288,333,
288,335,
286,336,
284,333,
284,331,
283,329,
283,330,
280,332,
282,331,
279,326,
280,325,
280,326,
278,328,
275,328,
274,325,
277,324,
278,327,
275,327,
274,328,
273,325,
274,323,
276,324,
274,325,
273,327,
271,326,
272,323,
276,324,
275,326,
271,327,
271,327,
272,326,
272,325,
270,328,
271,329,
268,328,
270,325,
270,326,
271,327,
269,328,
268,328,
267,325,
268,325,
265,328,
265,329,
261,329,
263,327,
266,326,
266,329,
266,331,
264,330,
266,329,
266,328,
268,331,
268,333,
267,333,
266,331,
268,329,
270,331,
268,333,
269,334,
269,331,
270,330,
270,332,
270,332,
267,332,
266,329,
269,328,
268,329,
269,331,
267,332,
265,330,
267,326,
266,328,
266,330,
265,330,
263,326,
266,325,
265,326,
264,327,
260,327,
260,328,
262,328,
262,330,
262,339,
263,344,
262,351,
265,360,
268,371,
271,387,
272,405,
275,422,
283,441,
285,461,
290,486,
295,511,
300,536,
306,560,
315,586,
321,614,
330,640,
336,664,
347,686,
357,706,
367,728,
375,747,
385,763,
394,776,
402,785,
414,797,
421,806,
429,812,
437,812,
445,812,
453,812,
459,812,
463,811,
468,804,
474,795,
478,790,
478,784,
480,776,
480,764,
482,753,
482,745,
478,737,
476,726,
473,714,
471,700,
468,691,
464,683,
458,675,
454,665,
451,653,
449,646,
444,641,
438,632,
435,625,
433,615,
427,609,
420,606,
418,600,
412,594,
407,587,
405,583,
398,580,
396,576,
390,569,
387,561,
385,554,
381,550,
376,545,
372,539,
368,530,
365,522,
363,517,
359,512,
353,504,
351,495,
348,488,
347,485,
346,482,
340,478,
337,471,
337,467,
335,468,
330,467,
329,467,
326,464,
327,462,
326,463,
320,463,
320,464,
318,462,
318,462,
318,463,
318,465,
313,466,
313,465,
314,464,
315,465,
314,466,
311,465,
310,464,
311,460,
311,460,
311,460,
309,460,
307,458,
311,456,
314,454,
313,454,
316,454,
313,450,
314,445,
319,443,
316,442,
315,442,
314,438,
315,433,
317,430,
317,429,
316,426,
314,423,
314,416,
315,411,
315,411,
312,408,
307,406,
307,399,
306,395,
304,395,
302,394,
300,392,
298,387,
298,382,
297,383,
295,383,
293,381,
290,377,
291,373,
290,374,
287,373,
288,373,
284,369,
286,367,
286,369,
285,369,
282,367,
280,365,
281,364,
283,365,
281,366,
279,367,
278,364,
278,362,
278,364,
279,366,
274,366,
276,363,
275,361,
275,361,
274,363,
273,365,
270,365,
269,362,
272,362,
273,363,
270,366,
270,364,
269,363,
274,362,
274,364,
273,367,
273,366,
273,365,
274,364,
275,368,
276,370,
275,369,
276,367,
278,367,
278,368,
276,369,
276,369,
277,367,
277,366,
279,369,
278,371,
279,371,
277,367,
280,368,
279,368,
276,370,
275,371,
276,368,
277,366,
274,367,
274,368,
272,368,
272,366,
272,363,
273,364,
270,366,
267,366,
266,365,
266,361,
268,363,
266,363,
263,362,
264,361,
267,359,
267,359,
265,361,
265,360,
266,360,
265,356,
270,357,
266,359,
267,360,
266,358,
266,357,
269,359,
267,364,
269,367,
267,370,
268,373,
271,380,
271,390,
272,402,
271,414,
274,424,
277,439,
281,457,
278,478,
283,497,
288,518,
292,538,
299,565,
303,590,
308,614,
316,635,
324,656,
333,681,
341,702,
349,724,
357,738,
369,750,
380,765,
386,780,
396,789,
404,795,
415,798,
425,803,
431,805,
438,806,
444,802,
453,796,
458,793,
464,790,
466,784,
470,775,
474,764,
477,754,
477,747,
475,737,
473,728,
476,715,
477,706,
474,697,
471,688,
467,678,
465,666,
463,658,
460,651,
456,645,
448,637,
445,628,
444,619,
438,617,
433,612,
428,606,
423,599,
419,594,
415,591,
408,588,
403,583,
399,576,
396,569,
393,566,
388,563,
382,558,
380,551,
377,541,
374,537,
369,534,
363,528,
360,520,
359,512,
356,506,
351,504,
350,500,
342,494,
343,488,
340,487,
336,485,
330,484,
328,480,
328,476,
328,476,
325,477,
320,476,
317,475,
319,474,
320,475,
317,477,
313,479,
313,480,
314,478,
316,481,
314,483,
313,485,
312,484,
313,483,
315,484,
318,486,
316,489,
314,489,
313,486,
317,487,
317,489,
315,490,
313,488,
313,486,
315,483,
317,485,
313,486,
312,483,
310,478,
313,473,
310,471,
313,471,
310,467,
310,461,
310,453,
309,452,
309,449,
307,444,
305,436,
307,432,
307,430,
306,427,
304,424,
302,418,
305,415,
304,411,
302,410,
300,408,
298,402,
298,398,
297,399,
295,399,
292,397,
289,394,
290,392,
291,393,
288,395,
287,394,
285,391,
287,388,
289,388,
288,390,
284,388,
285,388,
283,385,
285,386,
282,389,
281,389,
280,389,
278,386,
281,388,
278,390,
278,392,
276,393,
275,392,
278,391,
275,395,
273,396,
271,397,
271,394,
272,393,
272,396,
270,397,
269,396,
269,394,
269,392,
269,393,
269,396,
268,395,
268,394,
269,391,
267,394,
268,395,
268,397,
266,393,
269,391,
271,394,
269,393,
268,393,
265,391,
268,389,
271,390,
270,391,
269,390,
268,390,
273,387,
272,388,
271,389,
269,391,
270,389,
272,386,
273,388,
273,388,
271,387,
272,386,
272,383,
272,383,
274,384,
272,386,
272,385,
273,382,
273,382,
274,385,
274,386,
272,386,
273,382,
275,384,
272,385,
273,385,
271,386,
271,382,
273,383,
273,386,
272,387,
272,387,
271,384,
272,384,
272,386,
270,387,
267,387,
269,385,
268,383,
269,387,
267,386,
267,389,
265,388,
266,389,
267,394,
266,399,
265,406,
265,410,
268,418,
270,432,
271,445,
271,460,
273,476,
279,491,
284,514,
288,535,
290,559,
296,582,
303,603,
310,628,
316,654,
321,677,
330,699,
339,717,
352,737,
360,758,
368,774,
377,789,
387,799,
398,810,
407,821,
416,828,
424,833,
433,831,
442,832,
449,831,
454,829,
458,823,
465,815,
471,807,
474,800,
476,792,
477,782,
479,770,
481,759,
481,751,
479,742,
476,732,
476,720,
474,709,
472,701,
468,694,
464,686,
459,676,
457,666,
452,661,
447,656,
441,650,
435,643,
432,636,
428,632,
424,629,
417,626,
412,620,
408,614,
404,611,
401,607,
397,603,
390,597,
386,591,
384,586,
380,581,
373,577,
368,570,
364,563,
364,558,
359,554,
353,548,
348,542,
348,536,
345,530,
341,529,
335,527,
333,521,
333,517,
330,514,
328,513,
325,513,
323,510,
321,508,
322,508,
321,509,
319,511,
316,511,
316,508,
318,511,
319,513,
318,517,
314,517,
316,516,
317,516,
318,519,
316,521,
314,522,
315,521,
318,517,
318,522,
317,523,
319,524,
318,521,
319,519,
320,520,
320,520,
318,518,
318,514,
319,509,
319,507,
318,507,
317,504,
316,499,
316,495,
319,493,
319,491,
316,487,
316,482,
317,477,
316,473,
316,471,
313,467,
313,463,
312,456,
313,453,
312,451,
309,447,
306,443,
305,436,
305,434,
303,432,
302,430,
296,427,
297,422,
297,420,
297,421,
292,419,
290,417,
289,415,
288,413,
287,413,
286,413,
281,411,
280,409,
281,407,
282,409,
280,411,
278,410,
278,407,
279,405,
280,409,
278,410,
278,410,
275,407,
277,406,
276,408,
276,409,
274,410,
272,408,
275,406,
275,408,
274,411,
271,414,
270,411,
273,411,
274,413,
273,414,
273,416,
272,414,
273,412,
276,413,
274,415,
275,416,
273,415,
276,412,
278,413,
277,415,
278,414,
277,413,
278,411,
281,411,
281,413,
283,414,
281,412,
282,409,
281,409,
281,412,
281,414,
278,414,
278,411,
278,410,
277,412,
276,413,
273,413,
273,410,
273,408,
272,412,
268,411,
267,410,
268,406,
270,405,
270,407,
269,408,
268,407,
268,403,
271,401,
272,402,
272,403,
271,404,
271,400,
274,399,
276,400,
275,401,
273,401,
274,398,
276,396,
276,396,
275,397,
274,397,
271,395,
272,394,
274,393,
275,395,
273,395,
272,395,
275,395,
274,397,
274,403,
270,406,
271,412,
275,418,
273,428,
272,441,
276,455,
276,470,
281,485,
283,505,
287,527,
292,554,
295,578,
304,599,
311,625,
316,653,
323,680,
330,705,
339,727,
352,750,
356,774,
367,795,
374,813,
383,828,
393,840,
402,856,
411,868,
417,877,
426,882,
435,882,
443,888,
448,889,
454,889,
459,882,
464,875,
470,870,
471,863,
473,854,
474,842,
477,830,
477,821,
476,810,
473,798,
471,783,
472,771,
466,759,
464,750,
457,739,
453,727,
450,717,
447,707,
443,701,
435,692,
432,685,
429,675,
425,668,
420,665,
415,659,
409,653,
407,644,
403,639,
398,636,
391,632,
386,626,
381,618,
381,610,
374,605,
372,602,
368,593,
364,583,
362,575,
358,572,
352,568,
348,562,
346,554,
345,549,
340,549,
337,547,
333,543,
329,540,
329,534,
327,536,
325,536,
322,536,
320,534,
321,535,
318,536,
319,538,
317,541,
317,541,
319,539,
320,542,
318,546,
317,548,
318,547,
320,545,
322,549,
321,551,
319,552,
318,550,
323,547,
324,548,
323,548,
322,548,
320,546,
325,542,
327,542,
326,542,
324,540,
323,538,
322,533,
325,530,
325,529,
322,527,
320,522,
320,516,
322,511,
320,510,
319,507,
315,503,
317,497,
319,492,
317,490,
315,487,
312,482,
312,475,
312,470,
311,467,
309,465,
306,461,
307,454,
304,447,
304,446,
302,443,
299,440,
299,434,
298,430,
298,428,
293,427,
293,426,
289,419,
290,417,
290,416,
286,417,
285,415,
282,412,
283,410,
284,411,
281,412,
279,411,
279,409,
282,407,
282,406,
280,409,
278,408,
278,409,
279,407,
281,407,
281,410,
279,410,
280,411,
280,409,
281,409,
281,411,
279,413,
278,413,
279,410,
282,410,
280,412,
280,414,
279,414,
279,411,
281,409,
281,410,
280,412,
280,410,
279,407,
280,407,
281,406,
281,410,
279,409,
281,407,
281,405,
282,407,
280,408,
276,407,
278,406,
279,403,
278,405,
278,406,
278,406,
277,403,
278,402,
279,404,
279,405,
277,407,
272,403,
277,402,
279,402,
276,404,
275,404,
275,403,
275,400,
277,402,
274,401,
274,402,
274,401,
275,397,
279,398,
277,399,
273,398,
274,398,
274,394,
275,395,
275,395,
273,395,
272,394,
274,392,
274,391,
272,392,
272,393,
270,391,
271,389,
272,390,
271,393,
271,397,
270,400,
271,403,
274,409,
274,420,
275,432,
276,444,
277,457,
281,474,
285,498,
287,522,
290,546,
294,571,
300,598,
307,630,
313,663,
320,694,
325,723,
338,751,
347,782,
355,812,
363,840,
371,863,
383,883,
391,905,
402,925,
411,943,
418,954,
429,963,
438,973,
446,980,
452,985,
459,984,
465,981,
472,980,
477,977,
479,971,
482,962,
485,951,
489,942,
489,933,
487,922,
486,910,
488,895,
489,883,
486,872,
481,861,
478,849,
475,833,
474,823,
469,813,
464,804,
459,794,
455,783,
453,772,
449,764,
443,758,
439,751,
434,741,
431,732,
425,726,
419,722,
413,716,
408,709,
403,697,
401,692,
394,688,
390,680,
383,670,
382,660,
376,652,
372,647,
368,640,
365,626,
363,617,
360,610,
356,604,
351,597,
348,591,
347,582,
344,579,
343,575,
338,572,
334,568,
334,564,
333,563,
333,562,
329,563,
328,563,
329,560,
330,561,
330,564,
326,566,
327,566,
329,564,
329,564,
330,567,
330,568,
327,568,
330,566,
333,567,
331,570,
329,571,
327,569,
328,566,
331,565,
331,566,
329,565,
327,562,
329,557,
331,553,
329,552,
329,551,
326,546,
327,540,
329,534,
327,531,
328,528,
324,521,
326,513,
325,503,
327,501,
324,496,
323,491,
318,483,
321,478,
321,473,
321,469,
317,464,
314,457,
316,451,
316,447,
313,444,
310,442,
309,436,
309,430,
310,428,
305,426,
303,424,
302,421,
300,415,
301,413,
299,412,
295,410,
294,408,
297,403,
296,402,
293,403,
292,403,
292,402,
292,399,
293,399,
292,401,
290,402,
289,400,
289,396,
291,396,
290,397,
288,399,
285,397,
285,396,
285,393,
285,396,
282,398,
281,396,
282,392,
282,390,
282,391,
283,392,
279,391,
282,390,
280,386,
283,388,
282,391,
281,391,
278,388,
280,386,
282,387,
281,389,
281,389,
279,386,
284,385,
284,387,
282,389,
281,389,
281,387,
282,386,
282,388,
283,390,
282,391,
280,390,
279,387,
283,388,
282,390,
279,390,
278,391,
280,390,
283,392,
283,394,
281,393,
281,393,
281,391,
283,391,
282,392,
283,392,
282,390,
281,388,
285,386,
282,387,
284,387,
282,385,
283,381,
285,380,
284,381,
282,381,
280,379,
282,377,
282,375,
283,377,
281,378,
280,377,
277,376,
279,373,
281,375,
279,377,
277,376,
274,375,
278,375,
279,380,
277,384,
279,390,
277,395,
281,403,
281,416,
281,432,
282,449,
283,466,
287,488,
291,515,
295,545,
298,577,
301,610,
309,642,
316,679,
323,718,
331,756,
338,791,
348,824,
360,859,
370,892,
376,922,
388,950,
399,972,
413,992,
422,992,
430,992,
438,992,
447,992,
459,993,
467,992,
474,992,
480,993,
487,992,
494,992,
499,992,
501,992,
504,992,
507,993,
511,992,
511,992,
511,992,
508,992,
509,992,
508,992,
507,992,
504,992,
500,993,
497,992,
492,991,
491,976,
486,965,
480,954,
474,939,
471,925,
467,912,
461,904,
456,893,
451,879,
448,866,
445,856,
439,846,
434,835,
429,822,
427,809,
424,797,
416,787,
411,775,
406,761,
403,745,
402,733,
396,721,
389,708,
385,695,
383,680,
382,667,
377,657,
373,646,
368,636,
367,624,
365,617,
363,609,
359,605,
358,597,
356,589,
358,584,
354,583,
351,581,
348,577,
348,572,
348,571,
347,572,
345,572,
342,572,
342,570,
343,569,
344,571,
343,572,
341,572,
341,571,
342,567,
343,569,
343,571,
341,571,
339,567,
342,565,
342,564,
340,563,
339,561,
338,555,
340,550,
339,546,
339,544,
338,541,
338,534,
339,526,
339,522,
337,517,
335,513,
332,507,
334,498,
335,492,
333,488,
330,481,
329,474,
332,466,
330,459,
328,455,
324,448,
324,443,
322,433,
324,427,
322,423,
319,418,
317,413,
314,405,
317,401,
316,398,
312,395,
310,392,
308,386,
308,382,
306,380,
303,379,
299,376,
299,372,
301,369,
299,370,
298,368,
295,367,
293,363,
294,360,
295,361,
294,362,
291,360,
289,358,
291,355,
291,359,
289,360,
288,360,
286,357,
288,356,
290,356,
288,358,
286,359,
284,355,
287,353,
285,353,
284,354,
286,355,
280,353,
284,352,
286,354,
284,354,
281,355,
284,354,
284,350,
286,351,
285,352,
282,351,
282,352,
284,350,
285,351,
285,353,
284,354,
283,354,
282,352,
286,352,
285,355,
284,356,
282,356,
283,353,
285,353,
285,354,
282,356,
280,356,
281,352,
281,352,
283,351,
281,352,
279,352,
279,348,
281,345,
280,348,
279,348,
277,348,
279,346,
279,344,
280,346,
280,348,
278,346,
276,344,
279,340,
278,341,
276,343,
276,343,
271,339,
274,338,
275,339,
273,341,
272,341,
271,339,
274,337,
274,339,
275,343,
274,346,
274,348,
277,351,
279,362,
280,375,
279,389,
280,403,
286,419,
289,442,
293,469,
295,498,
299,529,
303,560,
312,597,
317,638,
322,679,
329,717,
336,754,
346,792,
356,832,
364,871,
373,904,
381,936,
395,963,
405,991,
414,992,
423,992,
434,992,
446,992,
455,992,
462,992,
470,992,
479,992,
484,992,
492,992,
495,993,
502,993,
503,993,
511,992,
514,992,
516,992,
515,992,
514,993,
516,992,
515,992,
513,992,
513,992,
506,992,
505,993,
500,992,
499,992,
495,993,
491,992,
486,992,
480,983,
476,970,
471,955,
467,940,
462,923,
460,908,
453,894,
445,879,
441,864,
437,844,
433,827,
430,812,
423,795,
418,775,
415,754,
411,736,
407,719,
400,703,
394,683,
389,661,
386,641,
381,623,
376,608,
370,592,
365,573,
365,557,
361,545,
357,537,
352,526,
350,515,
349,504,
347,499,
344,495,
340,490,
337,485,
337,479,
333,480,
332,482,
332,482,
327,477,
329,477,
330,480,
329,484,
327,487,
327,485,
331,486,
330,488,
328,490,
328,491,
327,490,
328,488,
330,489,
329,490,
327,491,
325,488,
328,485,
330,483,
329,482,
325,480,
325,477,
323,470,
327,468,
322,464,
323,463,
320,459,
320,451,
321,448,
320,445,
319,442,
317,436,
316,429,
316,424,
314,421,
313,419,
312,415,
311,409,
313,402,
311,400,
310,397,
307,393,
307,385,
309,379,
307,376,
306,374,
303,370,
303,363,
303,357,
303,356,
302,354,
300,350,
298,344,
299,339,
297,337,
297,335,
293,332,
291,327,
292,324,
291,322,
289,322,
286,320,
284,317,
285,313,
286,314,
283,312,
281,313,
282,311,
281,308,
281,309,
283,310,
279,310,
278,310,
279,308,
280,311,
279,314,
277,315,
274,315,
276,314,
279,314,
277,317,
275,320,
273,320,
273,317,
275,318,
275,321,
275,322,
274,323,
275,321,
277,320,
278,322,
277,324,
276,325,
277,322,
280,321,
280,324,
280,326,
279,327,
281,324,
280,322,
282,324,
279,326,
278,326,
279,323,
279,323,
279,325,
279,326,
276,326,
272,322,
275,321,
273,322,
273,323,
270,324,
269,321,
270,319,
270,320,
268,322,
267,323,
266,320,
267,320,
268,323,
267,329,
265,334,
264,339,
267,345,
270,355,
270,371,
270,388,
273,407,
280,427,
286,451,
285,481,
293,513,
297,544,
302,576,
314,612,
322,652,
330,690,
339,728,
351,760,
363,795,
373,831,
383,865,
393,894,
406,919,
418,943,
427,968,
437,988,
445,992,
456,993,
465,992,
474,992,
480,993,
486,992,
492,993,
498,992,
504,992,
507,993,
509,992,
508,992,
512,992,
511,991,
509,990,
507,976,
506,958,
505,944,
503,932,
498,921,
495,908,
488,892,
483,876,
481,863,
475,850,
468,837,
463,823,
458,806,
455,796,
450,786,
439,774,
437,762,
433,749,
430,737,
424,727,
419,716,
414,703,
409,689,
407,675,
402,665,
396,653,
391,639,
389,623,
386,611,
382,599,
377,588,
372,575,
368,560,
366,548,
361,541,
359,531,
352,522,
350,512,
348,503,
348,499,
344,494,
338,490,
338,484,
336,477,
337,477,
334,475,
333,473,
330,470,
334,468,
334,468,
334,469,
332,470,
330,466,
335,467,
336,468,
334,471,
335,472,
331,470,
336,469,
337,470,
337,473,
336,473,
337,471,
341,469,
343,469,
343,469,
341,468,
342,465,
344,461,
345,458,
344,456,
343,453,
342,449,
342,442,
345,437,
345,434,
342,431,
340,424,
342,416,
342,410,
338,406,
340,402,
336,395,
336,386,
335,379,
334,375,
330,370,
327,364,
324,357,
324,350,
322,348,
319,344,
316,339,
313,330,
313,325,
314,324,
311,324,
306,320,
306,316,
307,311,
306,312,
304,314,
304,312,
302,308,
303,306,
303,305,
302,306,
300,306,
298,304,
299,301,
300,303,
298,304,
297,304,
294,303,
298,301,
299,303,
296,305,
294,307,
294,305,
295,303,
295,304,
295,307,
292,309,
293,310,
292,308,
296,308,
296,311,
294,313,
291,314,
293,312,
294,313,
293,317,
294,318,
290,317,
292,313,
293,313,
293,314,
291,316,
290,314,
291,312,
293,312,
292,312,
291,314,
290,313,
288,311,
290,308,
291,310,
289,312,
288,313,
290,310,
289,309,
291,313,
289,317,
289,322,
289,325,
292,331,
293,342,
293,354,
296,369,
297,382,
302,400,
307,422,
310,449,
311,476,
317,502,
323,530,
332,564,
338,597,
345,630,
354,661,
365,693,
377,725,
385,755,
392,786,
403,812,
415,836,
425,857,
437,879,
443,897,
453,912,
461,921,
470,930,
476,938,
482,945,
487,945,
494,941,
500,939,
505,936,
505,932,
507,925,
508,912,
508,902,
507,891,
504,879,
502,867,
496,852,
497,837,
494,825,
488,812,
482,798,
478,783,
475,767,
472,755,
468,743,
460,729,
457,715,
453,701,
447,691,
443,682,
437,671,
432,657,
430,645,
426,634,
421,624,
416,612,
410,598,
409,582,
406,571,
400,561,
395,549,
388,536,
386,522,
380,511,
377,502,
373,493,
367,483,
365,473,
365,466,
361,462,
355,456,
354,452,
352,445,
352,442,
347,442,
347,440,
343,438,
343,433,
343,432,
340,434,
339,435,
336,435,
337,432,
339,433,
338,436,
335,439,
335,440,
335,439,
337,439,
337,443,
338,446,
335,445,
335,444,
335,441,
337,444,
336,446,
335,445,
335,444,
335,439,
336,441,
335,440,
334,437,
333,431,
335,427,
336,426,
333,425,
334,421,
332,413,
335,407,
335,405,
335,403,
332,398,
330,391,
330,384,
330,381,
329,376,
326,372,
324,366,
324,360,
326,355,
323,353,
320,348,
320,344,
321,337,
322,334,
319,330,
317,328,
314,325,
314,318,
313,317,
312,315,
308,314,
305,311,
303,308,
303,307,
301,307,
297,307,
294,305,
293,299,
292,300,
291,299,
289,301,
286,299,
287,298,
287,296,
289,298,
287,300,
283,300,
286,298,
285,295,
287,297,
286,300,
284,300,
284,299,
285,297,
284,299,
284,302,
282,302,
282,300,
283,300,
284,301,
284,304,
281,305,
280,304,
281,304,
283,306,
284,308,
282,311,
280,309,
282,308,
285,309,
283,312,
281,312,
279,312,
281,309,
283,309,
282,310,
278,309,
279,310,
279,307,
281,307,
279,309,
278,310,
277,310,
277,309,
281,311,
279,317,
278,323,
277,328,
278,333,
282,343,
283,355,
283,371,
286,387,
290,403,
297,423,
303,448,
306,473,
313,498,
318,523,
326,548,
335,579,
341,608,
350,638,
358,662,
372,686,
384,713,
392,738,
402,759,
410,778,
421,792,
430,808,
442,821,
449,831,
456,836,
466,838,
472,843,
475,845,
481,844,
484,840,
487,835,
492,828,
494,823,
493,815,
493,804,
495,791,
496,781,
493,772,
490,759,
488,746,
486,730,
485,718,
479,707,
475,696,
468,683,
462,667,
460,656,
453,645,
447,635,
439,625,
435,613,
431,602,
425,594,
418,585,
412,574,
408,563,
404,552,
398,544,
392,535,
385,525,
381,511,
378,501,
373,494,
367,488,
362,480,
357,470,
356,460,
355,455,
350,451,
345,446,
341,440,
340,434,
336,432,
337,431,
332,430,
329,425,
329,422,
328,423,
326,424,
323,425,
322,424,
323,423,
323,425,
322,429,
320,429,
317,429,
322,430,
324,434,
323,437,
321,439,
322,439,
324,437,
324,437,
325,440,
323,440,
323,439,
325,437,
329,436,
328,437,
328,437,
327,433,
329,428,
330,426,
329,423,
330,424,
328,421,
328,417,
330,413,
327,411,
326,411,
324,408,
323,403,
327,398,
324,396,
322,395,
319,390,
320,384,
318,378,
317,377,
315,375,
313,371,
310,366,
310,359,
310,359,
306,357,
303,353,
300,348,
301,344,
297,342,
298,343,
294,340,
291,336,
294,331,
293,331,
291,332,
289,332,
288,329,
290,326,
290,326,
287,326,
284,327,
283,324,
284,321,
285,323,
286,324,
281,324,
282,324,
283,322,
284,323,
283,323,
282,325,
281,324,
284,323,
283,324,
283,325,
281,328,
280,329,
281,327,
281,327,
282,331,
280,332,
279,333,
278,332,
279,332,
279,334,
276,337,
