PPG A0,PPG A1,event_code
334,511,
335,516,
335,520,
334,522,
332,525,
330,527,
329,528,
329,529,
329,529,
327,530,
324,531,
323,531,
324,529,
323,528,
321,526,
319,525,
319,523,
320,520,
319,517,
317,515,
314,513,
313,511,
314,507,
313,503,
312,499,
310,498,
309,497,
310,495,
311,492,
311,489,
307,489,
307,489,
308,489,
309,487,
308,487,
306,487,
305,490,
305,490,
307,488,
306,487,
305,487,
304,486,
306,486,
307,484,
306,481,
304,481,
304,482,
304,482,
306,481,
305,482,
303,483,
303,485,
305,485,
306,484,
306,482,
306,484,
306,488,
307,492,
309,494,
309,494,
308,493,
307,494,
308,495,
309,495,
310,494,
308,492,
306,493,
306,492,
306,491,
307,489,
306,488,
305,487,
304,486,
304,483,
304,481,
302,480,
300,480,
300,480,
301,479,
301,478,
300,476,
298,477,
298,478,
300,478,
301,476,
299,476,
297,476,
296,477,
297,478,
298,477,
297,476,
295,476,
295,476,
296,476,
298,476,
296,475,
295,478,
295,481,
297,484,
298,485,
298,486,
297,488,
296,491,
297,492,
299,493,
299,493,
297,493,
297,494,
298,497,
299,499,
300,502,
297,505,
295,507,
297,509,
298,512,
299,515,
298,518,
297,519,
299,519,
300,519,
300,517,
299,515,
299,515,
300,514,
301,515,
302,517,
302,520,
301,523,
304,527,
307,530,
311,533,
312,537,
314,543,
317,547,
322,552,
327,553,
330,556,
333,561,
338,568,
343,575,
349,579,
353,583,
356,588,
360,592,
367,590,
372,586,
374,584,
376,583,
378,584,
382,586,
385,586,
388,587,
387,590,
388,593,
390,594,
393,594,
393,594,
392,594,
392,591,
392,583,
392,575,
392,566,
392,558,
391,551,
391,546,
391,540,
391,535,
389,533,
388,534,
388,538,
387,543,
387,547,
385,554,
384,559,
384,559,
383,558,
383,557,
381,554,
379,553,
378,551,
378,549,
377,551,
376,560,
374,564,
373,561,
373,554,
373,545,
371,537,
370,530,
369,524,
368,518,
368,511,
365,506,
364,503,
362,500,
361,497,
360,495,
357,493,
354,493,
351,495,
350,496,
350,496,
348,496,
346,497,
344,499,
343,502,
342,502,
340,504,
339,507,
338,510,
338,513,
337,515,
337,516,
335,518,
335,523,
335,529,
335,534,
335,539,
334,544,
334,548,
335,553,
336,556,
336,560,
335,564,
335,568,
336,569,
337,568,
337,568,
335,568,
334,570,
334,573,
334,575,
333,575,
332,575,
329,576,
329,586,
329,598,
329,612,
328,622,
328,629,
327,632,
327,639,
327,643,
325,647,
323,646,
322,636,
323,625,
322,615,
322,605,
320,589,
320,572,
320,556,
320,544,
318,530,
317,515,
316,504,
316,499,
317,492,
316,488,
314,479,
314,463,
314,444,
314,427,
314,414,
312,402,
312,394,
311,387,
312,385,
313,389,
310,399,
310,403,
309,401,
310,397,
308,393,
306,389,
306,385,
306,383,
305,382,
305,380,
303,378,
301,375,
302,370,
303,363,
303,357,
302,354,
302,352,
302,351,
303,349,
303,348,
302,349,
301,352,
301,356,
301,360,
301,363,
301,368,
300,374,
300,379,
302,385,
302,390,
301,395,
300,403,
302,410,
304,417,
305,424,
304,431,
304,438,
304,446,
306,452,
307,457,
306,462,
305,468,
305,473,
306,478,
307,482,
306,487,
306,491,
307,496,
307,500,
307,505,
307,509,
305,513,
305,517,
306,519,
307,519,
306,519,
305,520,
304,519,
304,519,
305,518,
303,516,
302,516,
302,515,
302,514,
303,514,
302,513,
301,513,
300,513,
301,514,
301,513,
301,513,
300,512,
300,512,
301,513,
301,512,
301,512,
300,512,
298,518,
298,524,
299,531,
299,536,
297,531,
296,522,
297,513,
298,502,
298,492,
298,482,
297,474,
299,467,
300,461,
300,454,
299,448,
301,443,
302,439,
305,435,
307,432,
309,429,
311,429,
313,430,
317,431,
321,433,
324,437,
327,442,
330,448,
335,453,
340,458,
343,465,
347,472,
349,479,
353,485,
357,491,
359,498,
361,504,
363,510,
366,518,
368,524,
370,531,
370,539,
372,548,
373,555,
375,561,
376,567,
377,572,
376,578,
378,582,
379,585,
378,588,
378,589,
378,593,
377,597,
378,601,
378,603,
376,605,
374,606,
374,607,
373,608,
372,613,
371,616,
369,615,
367,612,
367,606,
365,600,
362,594,
359,588,
358,583,
356,577,
356,572,
353,568,
350,565,
349,563,
349,561,
348,561,
347,567,
345,572,
343,568,
344,559,
343,545,
342,533,
341,522,
340,511,
339,503,
339,495,
338,488,
337,480,
337,473,
337,466,
337,459,
336,453,
334,448,
333,445,
334,442,
334,440,
333,440,
331,442,
331,447,
332,451,
332,455,
331,459,
331,463,
331,468,
331,471,
332,475,
332,478,
331,481,
331,484,
331,489,
332,493,
332,497,
333,501,
332,505,
333,508,
335,511,
335,513,
334,516,
334,519,
335,523,
336,524,
337,525,
335,526,
334,528,
335,529,
335,528,
335,527,
334,525,
333,524,
333,524,
333,524,
333,525,
332,524,
331,525,
331,525,
331,526,
331,525,
330,523,
329,522,
327,521,
328,519,
328,518,
326,518,
325,520,
324,526,
324,538,
325,548,
324,553,
322,547,
322,536,
322,521,
322,505,
322,490,
321,477,
320,465,
320,455,
320,445,
319,436,
318,428,
317,422,
317,415,
317,408,
316,401,
315,396,
313,393,
314,392,
314,391,
314,391,
311,393,
311,396,
311,399,
313,401,
312,401,
311,404,
309,408,
309,409,
309,408,
310,408,
309,410,
309,412,
310,415,
311,419,
311,423,
309,426,
308,431,
307,435,
307,438,
307,438,
306,435,
305,431,
305,426,
305,421,
305,417,
304,413,
303,411,
303,409,
303,405,
303,402,
302,400,
301,398,
301,398,
302,396,
303,393,
303,395,
302,398,
302,401,
302,404,
304,408,
304,412,
304,417,
304,420,
306,423,
308,423,
308,424,
308,425,
309,427,
311,426,
315,423,
317,420,
318,419,
321,420,
324,421,
327,424,
329,429,
330,434,
332,439,
336,449,
340,458,
342,467,
345,475,
347,482,
351,492,
353,502,
357,515,
359,528,
361,543,
364,558,
367,571,
370,585,
372,599,
373,611,
376,621,
377,624,
379,622,
378,618,
379,613,
379,607,
380,598,
381,593,
380,591,
379,590,
379,588,
379,585,
379,579,
379,572,
377,568,
377,562,
376,557,
376,551,
375,544,
374,538,
373,534,
374,529,
373,528,
373,528,
371,528,
370,528,
370,529,
370,527,
368,526,
366,528,
364,530,
364,531,
363,529,
361,524,
359,521,
357,517,
357,514,
357,510,
355,510,
353,507,
351,504,
350,500,
350,500,
350,500,
349,497,
347,497,
347,499,
347,499,
346,500,
345,502,
343,504,
343,507,
343,509,
343,509,
341,511,
340,512,
340,515,
341,516,
340,519,
340,522,
339,526,
338,532,
339,536,
340,542,
338,546,
337,544,
337,541,
337,538,
336,530,
335,517,
334,506,
333,495,
334,484,
334,476,
334,475,
332,477,
332,487,
333,497,
333,507,
332,517,
331,526,
329,550,
330,591,
330,638,
329,682,
328,723,
328,759,
329,788,
329,811,
327,829,
326,844,
324,856,
323,864,
323,867,
323,865,
321,862,
320,856,
320,846,
321,833,
320,819,
319,804,
318,788,
319,769,
320,748,
320,727,
319,706,
317,687,
317,669,
319,649,
319,629,
318,610,
317,593,
317,576,
317,561,
316,544,
315,530,
314,517,
314,507,
314,496,
313,486,
312,477,
310,470,
310,465,
310,459,
310,453,
309,448,
308,445,
309,442,
310,440,
310,437,
310,436,
309,436,
310,438,
311,439,
311,440,
310,441,
310,443,
310,446,
312,448,
313,451,
314,454,
314,457,
313,461,
313,466,
314,470,
312,474,
311,480,
310,486,
310,495,
311,503,
310,513,
309,522,
309,526,
311,527,
312,524,
313,521,
313,518,
312,516,
312,515,
311,516,
312,518,
311,522,
310,531,
312,540,
313,548,
314,550,
314,547,
315,545,
317,543,
319,539,
322,531,
324,525,
327,521,
331,522,
335,526,
339,531,
343,530,
346,526,
350,521,
356,515,
361,512,
365,510,
369,511,
373,512,
379,512,
384,512,
386,513,
389,515,
392,520,
396,524,
400,527,
403,529,
405,534,
407,538,
409,540,
410,542,
411,543,
411,547,
411,552,
413,556,
415,559,
413,561,
412,566,
411,570,
411,572,
411,573,
410,575,
409,577,
408,580,
407,584,
406,587,
406,590,
404,592,
402,595,
402,597,
403,598,
402,596,
401,597,
400,596,
400,595,
400,595,
400,593,
398,592,
397,591,
396,590,
395,588,
394,584,
392,582,
389,581,
388,579,
387,579,
386,577,
383,576,
380,576,
377,576,
376,574,
375,572,
373,568,
370,566,
369,563,
366,560,
365,558,
362,555,
359,553,
357,552,
356,551,
355,549,
353,549,
350,549,
349,551,
348,553,
347,553,
346,553,
345,554,
344,555,
343,556,
343,556,
343,555,
341,555,
340,556,
341,559,
342,560,
342,562,
341,566,
341,576,
342,584,
343,591,
343,593,
342,589,
343,582,
343,575,
344,565,
344,554,
343,544,
341,536,
341,528,
342,520,
342,513,
342,511,
342,513,
342,518,
342,521,
341,522,
340,523,
340,526,
339,529,
340,534,
339,537,
337,544,
336,548,
336,550,
336,545,
336,534,
334,523,
333,514,
333,506,
333,498,
332,491,
332,485,
330,480,
330,476,
330,472,
330,469,
329,466,
328,464,
327,463,
327,461,
327,461,
326,462,
325,464,
324,466,
324,467,
324,468,
323,470,
322,471,
321,473,
321,476,
321,478,
320,479,
318,481,
317,484,
316,485,
316,487,
316,489,
314,492,
314,496,
315,500,
315,502,
316,504,
314,505,
314,508,
315,511,
316,512,
316,504,
316,492,
315,479,
315,465,
316,452,
316,440,
316,430,
315,422,
315,414,
316,408,
316,403,
316,399,
316,399,
316,398,
316,398,
317,398,
316,400,
314,403,
314,407,
315,411,
316,416,
315,420,
314,427,
313,433,
313,439,
314,445,
314,451,
313,458,
315,467,
317,475,
319,481,
321,488,
322,496,
324,504,
327,511,
331,517,
333,524,
336,531,
340,540,
346,547,
351,553,
356,559,
360,565,
365,572,
371,579,
378,583,
383,588,
388,593,
392,599,
397,604,
402,607,
406,610,
409,613,
412,617,
416,620,
420,621,
423,623,
424,624,
426,626,
428,628,
431,628,
432,628,
433,627,
433,627,
433,627,
435,624,
436,622,
435,620,
434,618,
433,616,
434,613,
434,608,
432,605,
429,602,
429,600,
430,596,
430,594,
428,591,
428,590,
427,589,
426,587,
427,585,
425,584,
422,583,
422,583,
421,582,
420,579,
419,576,
415,574,
413,573,
411,570,
409,567,
406,565,
403,564,
399,563,
397,561,
395,559,
393,556,
389,554,
385,552,
383,551,
382,548,
380,545,
376,543,
374,542,
372,541,
371,539,
369,537,
366,537,
364,536,
363,535,
362,533,
361,532,
359,530,
357,530,
357,530,
358,529,
357,529,
356,529,
354,529,
355,529,
356,529,
356,527,
355,526,
355,527,
355,528,
357,528,
357,527,
358,528,
357,529,
357,530,
358,531,
359,531,
358,533,
357,534,
357,536,
357,537,
357,537,
357,537,
356,537,
356,536,
357,534,
357,532,
357,529,
356,528,
355,528,
355,527,
354,524,
353,523,
351,521,
350,520,
350,518,
348,516,
346,514,
343,512,
340,512,
339,511,
338,510,
337,508,
335,507,
334,506,
334,505,
333,504,
332,502,
330,501,
328,500,
328,501,
329,500,
329,499,
327,498,
325,498,
326,498,
327,497,
327,496,
326,495,
325,495,
325,495,
326,494,
326,492,
325,491,
324,491,
324,490,
325,489,
325,488,
324,487,
323,487,
323,488,
323,486,
324,486,
323,486,
322,486,
322,486,
323,486,
323,486,
322,486,
320,486,
320,487,
321,488,
320,486,
320,485,
318,485,
318,485,
318,484,
318,483,
318,482,
317,482,
317,482,
318,482,
319,481,
317,480,
315,480,
313,480,
313,480,
313,479,
312,478,
309,479,
308,479,
309,479,
310,479,
311,478,
311,478,
311,480,
313,481,
314,481,
316,481,
316,482,
316,482,
318,484,
319,483,
321,482,
320,483,
320,484,
320,484,
322,485,
322,486,
321,486,
321,486,
322,486,
322,487,
322,487,
320,486,
318,488,
318,489,
319,489,
320,489,
318,487,
317,487,
316,488,
315,488,
314,487,
313,487,
310,487,
310,488,
310,487,
310,485,
309,484,
308,483,
307,482,
308,481,
308,480,
307,478,
306,478,
306,478,
306,478,
306,477,
305,476,
305,475,
304,475,
305,475,
306,475,
306,475,
306,476,
307,478,
309,480,
310,482,
313,483,
314,487,
317,491,
322,496,
326,500,
330,504,
333,509,
337,516,
342,521,
347,526,
353,532,
357,537,
361,545,
367,550,
373,555,
379,559,
384,563,
388,569,
393,573,
399,575,
404,577,
407,580,
410,584,
413,587,
417,589,
418,590,
419,591,
420,593,
422,594,
424,595,
425,594,
425,593,
425,593,
425,594,
426,593,
428,593,
427,592,
427,592,
427,592,
427,591,
428,589,
429,588,
427,585,
426,585,
427,583,
426,580,
425,579,
423,577,
422,576,
422,573,
422,569,
420,565,
417,562,
416,561,
415,559,
415,556,
413,553,
410,551,
407,550,
405,549,
404,547,
402,546,
399,543,
396,541,
395,539,
394,536,
391,534,
388,533,
384,531,
382,531,
381,528,
379,526,
375,523,
372,523,
369,523,
369,521,
366,521,
363,520,
360,520,
358,520,
358,519,
358,519,
357,519,
355,521,
355,523,
356,524,
356,523,
354,522,
354,521,
353,520,
354,519,
355,517,
354,516,
354,516,
354,516,
355,515,
354,514,
354,513,
352,513,
352,514,
352,514,
352,513,
351,512,
350,513,
349,513,
350,512,
351,510,
350,509,
348,507,
347,507,
348,507,
349,505,
347,504,
345,503,
344,503,
345,502,
345,502,
343,502,
341,502,
339,503,
338,503,
338,503,
339,503,
337,503,
336,505,
335,506,
335,505,
334,503,
332,503,
330,504,
330,502,
329,501,
329,498,
326,497,
324,496,
323,496,
324,495,
324,493,
323,491,
322,491,
322,491,
322,490,
322,490,
320,490,
318,491,
317,491,
318,490,
317,489,
315,488,
314,487,
312,487,
313,485,
313,482,
311,479,
309,478,
308,477,
309,475,
308,473,
308,472,
306,472,
307,473,
307,473,
308,474,
308,475,
307,476,
306,477,
305,476,
307,475,
307,474,
306,474,
306,474,
306,475,
307,475,
307,473,
305,473,
304,472,
306,471,
306,471,
307,472,
305,471,
305,473,
305,473,
305,472,
305,471,
304,469,
304,470,
306,471,
305,471,
306,471,
305,471,
304,472,
304,472,
305,471,
305,471,
303,471,
303,472,
304,471,
306,470,
306,469,
306,468,
305,467,
305,468,
305,469,
304,468,
302,469,
300,469,
299,470,
301,471,
301,471,
299,470,
298,471,
299,472,
299,473,
300,473,
299,473,
298,474,
297,474,
298,474,
299,473,
299,474,
297,473,
297,473,
297,474,
298,474,
298,474,
297,474,
297,475,
297,474,
297,473,
296,473,
295,472,
295,471,
296,470,
297,469,
297,468,
297,467,
296,468,
297,468,
298,467,
299,466,
298,467,
298,467,
299,468,
300,466,
301,466,
301,466,
300,468,
302,469,
303,470,
304,470,
305,471,
306,473,
310,475,
314,477,
317,478,
319,480,
321,483,
326,486,
329,489,
333,492,
336,494,
340,498,
345,503,
350,506,
356,510,
359,514,
362,519,
365,523,
370,527,
374,531,
377,533,
380,538,
382,541,
386,543,
389,545,
391,546,
391,549,
393,552,
394,553,
396,553,
397,554,
397,556,
397,557,
398,558,
398,558,
399,558,
398,559,
397,559,
398,559,
398,557,
399,555,
398,553,
397,552,
397,549,
397,546,
395,543,
393,542,
391,542,
389,542,
388,540,
386,538,
384,537,
383,536,
382,536,
382,535,
380,534,
377,533,
375,532,
373,531,
373,530,
370,529,
368,528,
365,529,
363,528,
363,527,
361,524,
358,521,
355,520,
354,518,
352,516,
350,515,
348,514,
346,513,
344,512,
343,511,
343,510,
340,508,
338,508,
337,509,
337,508,
337,506,
337,504,
335,504,
335,504,
336,504,
337,503,
336,502,
335,503,
335,505,
336,504,
337,504,
336,505,
336,507,
335,508,
336,509,
338,509,
338,509,
337,509,
337,510,
337,510,
338,509,
338,510,
336,512,
336,516,
336,520,
336,522,
335,524,
334,527,
333,531,
334,533,
334,534,
334,534,
333,534,
332,534,
332,534,
332,534,
332,534,
330,533,
329,530,
329,528,
330,524,
331,519,
330,516,
329,513,
329,511,
331,508,
331,505,
331,502,
330,500,
330,498,
330,496,
330,493,
328,492,
327,493,
326,495,
325,497,
325,498,
323,499,
320,500,
319,502,
319,503,
318,504,
316,507,
314,511,
314,516,
313,528,
313,543,
312,553,
311,553,
309,549,
308,542,
308,529,
307,516,
306,502,
304,490,
304,477,
303,466,
302,454,
300,444,
298,436,
299,429,
300,422,
300,418,
299,413,
299,411,
300,409,
302,406,
302,405,
302,405,
301,406,
302,409,
303,411,
304,415,
303,418,
303,422,
304,426,
305,429,
305,431,
306,435,
305,438,
304,441,
306,443,
306,445,
307,447,
305,451,
305,454,
306,457,
306,460,
306,462,
305,465,
304,468,
305,471,
304,472,
303,474,
302,475,
301,478,
301,479,
301,479,
300,480,
298,482,
298,484,
299,486,
299,487,
298,487,
298,487,
297,487,
299,485,
299,484,
299,484,
298,483,
298,483,
298,482,
300,482,
299,481,
299,480,
299,480,
299,480,
301,479,
301,479,
301,479,
302,481,
304,482,
307,483,
310,484,
311,485,
313,488,
316,491,
320,493,
324,496,
326,499,
329,502,
333,506,
338,508,
342,509,
345,511,
349,514,
353,518,
358,520,
363,524,
366,527,
368,531,
371,533,
375,535,
377,537,
380,539,
382,541,
383,543,
386,544,
387,544,
387,544,
387,545,
388,547,
390,549,
391,550,
391,551,
390,553,
389,554,
389,555,
389,555,
388,555,
386,557,
386,559,
385,560,
385,561,
384,560,
382,559,
381,558,
380,557,
380,555,
378,553,
376,551,
374,550,
374,549,
374,548,
373,547,
373,546,
371,545,
371,543,
371,541,
370,539,
368,537,
366,535,
366,533,
365,530,
362,527,
359,524,
357,523,
355,521,
355,518,
352,516,
350,514,
347,514,
345,514,
343,513,
341,512,
339,512,
336,512,
335,511,
334,509,
334,508,
331,506,
330,506,
328,505,
328,503,
327,502,
325,502,
323,504,
323,505,
323,504,
323,503,
322,502,
323,501,
323,500,
324,499,
325,498,
324,497,
324,497,
323,497,
325,496,
326,494,
325,493,
324,493,
322,494,
323,494,
323,493,
322,493,
322,494,
320,494,
321,494,
321,493,
320,492,
320,493,
318,494,
318,494,
318,493,
317,492,
315,491,
314,491,
314,490,
314,488,
313,488,
312,489,
311,489,
311,489,
312,488,
312,488,
311,487,
310,489,
311,488,
311,488,
311,488,
311,487,
310,489,
310,489,
310,487,
310,487,
308,486,
306,487,
305,487,
305,487,
305,486,
303,487,
301,489,
300,491,
300,492,
300,491,
299,492,
298,492,
297,493,
296,493,
296,493,
295,492,
293,492,
293,492,
295,490,
294,488,
295,487,
294,486,
294,486,
295,485,
295,484,
295,482,
295,482,
295,481,
295,479,
295,477,
296,474,
294,474,
295,476,
296,477,
296,477,
297,479,
296,480,
297,480,
298,482,
299,484,
299,486,
298,489,
298,492,
299,495,
299,495,
299,494,
298,492,
298,491,
298,488,
299,484,
299,482,
298,482,
297,482,
298,483,
298,484,
297,484,
297,484,
295,485,
296,484,
296,486,
295,489,
295,492,
293,496,
294,497,
294,497,
295,497,
294,497,
293,498,
293,499,
295,500,
295,499,
294,499,
294,498,
294,498,
294,499,
295,499,
295,500,
293,500,
294,499,
294,498,
294,495,
294,491,
294,488,
293,486,
294,482,
296,477,
296,472,
295,469,
295,469,
295,471,
295,473,
295,472,
294,468,
293,462,
294,456,
295,449,
296,444,
294,441,
294,438,
295,436,
295,434,
294,432,
294,431,
293,431,
293,430,
294,430,
295,430,
294,431,
294,433,
295,435,
296,436,
296,437,
295,439,
294,442,
294,446,
296,449,
297,450,
298,454,
299,458,
301,463,
303,466,
305,470,
308,475,
310,481,
314,487,
319,493,
322,497,
326,502,
329,508,
333,512,
336,517,
340,520,
344,526,
347,531,
350,538,
355,542,
358,546,
361,549,
364,554,
366,564,
370,568,
374,562,
375,553,
376,543,
377,534,
380,525,
381,516,
382,509,
382,502,
382,497,
383,491,
384,485,
383,481,
382,478,
382,478,
381,476,
381,474,
381,472,
379,471,
377,472,
377,472,
379,474,
378,475,
376,477,
374,479,
374,481,
374,483,
374,485,
372,485,
371,487,
371,488,
371,489,
370,490,
369,490,
367,492,
367,493,
366,494,
366,495,
364,496,
362,498,
360,500,
358,502,
357,504,
353,505,
350,507,
349,509,
348,512,
347,513,
344,515,
342,515,
341,516,
340,516,
339,516,
337,514,
335,515,
334,516,
335,514,
335,512,
334,512,
333,512,
332,512,
333,512,
335,511,
334,510,
334,509,
334,510,
334,508,
335,507,
334,505,
333,505,
331,505,
332,506,
331,504,
332,503,
331,503,
332,503,
332,503,
333,501,
333,500,
332,500,
331,500,
333,500,
334,498,
334,496,
332,496,
332,497,
333,497,
334,496,
333,496,
333,495,
332,496,
333,496,
332,495,
332,494,
330,495,
329,496,
329,496,
329,497,
328,497,
327,496,
325,497,
325,496,
325,496,
325,496,
323,497,
321,499,
320,502,
319,502,
319,503,
318,503,
317,505,
317,506,
316,506,
317,504,
316,503,
315,503,
315,503,
315,501,
317,499,
315,497,
315,496,
315,496,
315,497,
315,496,
314,495,
311,495,
311,496,
311,497,
311,497,
309,497,
307,498,
306,499,
307,500,
307,499,
307,497,
305,495,
305,494,
305,493,
306,490,
306,488,
304,486,
304,485,
304,483,
305,480,
305,478,
304,475,
304,474,
306,473,
308,472,
308,473,
307,474,
307,476,
309,477,
310,478,
311,478,
311,478,
311,480,
311,481,
312,482,
312,482,
311,482,
311,483,
311,484,
312,485,
312,484,
311,484,
310,484,
310,486,
311,486,
311,486,
311,485,
311,485,
311,485,
311,484,
312,483,
311,483,
309,481,
310,482,
310,481,
312,480,
311,478,
311,479,
310,479,
311,479,
312,479,
311,477,
310,477,
308,476,
309,476,
309,475,
309,475,
307,475,
307,476,
307,477,
308,477,
307,476,
306,476,
305,477,
305,477,
305,476,
305,475,
304,475,
303,476,
304,476,
305,476,
306,476,
307,475,
306,476,
307,476,
310,477,
311,478,
310,478,
310,480,
312,482,
315,483,
318,485,
319,489,
322,493,
325,497,
330,499,
334,502,
337,506,
340,510,
344,515,
349,518,
354,522,
357,525,
361,529,
364,533,
368,535,
373,538,
375,541,
377,545,
380,546,
384,547,
386,547,
388,548,
389,548,
391,549,
393,550,
394,549,
395,548,
394,547,
395,549,
396,549,
398,549,
396,550,
396,550,
395,550,
395,548,
395,547,
395,546,
393,546,
392,546,
392,546,
393,546,
393,543,
391,544,
391,543,
392,542,
393,542,
393,543,
391,542,
389,544,
388,546,
387,548,
386,550,
384,554,
381,560,
381,565,
380,568,
380,572,
378,575,
374,578,
373,584,
372,587,
371,583,
368,575,
364,565,
363,555,
361,543,
360,531,
356,521,
354,513,
351,505,
349,499,
348,492,
345,487,
344,483,
342,480,
342,478,
341,475,
339,471,
337,469,
336,468,
335,468,
335,466,
334,465,
332,467,
331,469,
332,472,
333,473,
332,476,
330,480,
330,484,
331,486,
333,485,
334,486,
333,487,
333,489,
333,491,
334,494,
334,495,
333,498,
332,501,
333,505,
334,507,
333,511,
332,515,
331,518,
332,521,
333,521,
332,525,
331,528,
331,531,
331,533,
332,535,
333,534,
332,533,
331,533,
331,532,
331,528,
331,523,
330,519,
329,516,
328,514,
328,511,
328,508,
326,507,
325,509,
324,510,
324,509,
323,508,
322,508,
322,509,
322,510,
322,510,
322,510,
320,509,
319,511,
318,514,
319,518,
318,521,
317,523,
317,527,
316,531,
316,538,
316,543,
314,543,
312,542,
311,542,
310,542,
311,539,
309,536,
307,534,
306,533,
307,536,
306,540,
307,542,
307,541,
306,541,
307,539,
308,536,
307,535,
305,533,
305,534,
305,536,
306,538,
307,535,
305,526,
304,518,
305,508,
306,496,
306,485,
306,477,
306,470,
306,463,
307,456,
308,449,
307,444,
307,442,
308,441,
309,440,
309,438,
309,438,
308,438,
307,436,
309,437,
308,441,
307,445,
306,455,
306,467,
306,478,
307,486,
306,488,
305,491,
304,491,
304,489,
304,484,
303,479,
302,474,
301,472,
303,469,
302,467,
302,466,
301,466,
300,467,
301,467,
302,467,
301,467,
301,468,
301,467,
301,465,
302,463,
302,461,
301,461,
302,462,
300,464,
301,467,
300,467,
299,471,
298,474,
298,483,
298,501,
298,519,
295,539,
294,559,
294,580,
295,596,
295,612,
293,628,
293,644,
292,651,
292,653,
293,656,
292,657,
290,656,
291,653,
292,646,
293,642,
292,638,
291,636,
291,635,
293,628,
293,620,
293,611,
294,604,
295,597,
297,590,
298,583,
298,579,
299,572,
301,569,
303,563,
306,558,
307,559,
308,562,
310,549,
313,522,
317,490,
321,460,
323,432,
326,409,
331,387,
336,367,
339,350,
342,336,
346,328,
351,322,
356,319,
360,320,
362,323,
366,330,
369,340,
373,350,
374,361,
375,374,
377,388,
379,401,
382,414,
383,426,
383,441,
383,462,
385,481,
387,493,
388,501,
387,507,
386,513,
386,518,
387,521,
387,525,
387,528,
385,533,
385,537,
386,541,
385,544,
384,547,
383,550,
382,553,
381,557,
381,559,
379,563,
377,569,
375,576,
375,582,
374,581,
372,579,
369,578,
369,575,
369,573,
368,570,
366,567,
363,565,
364,564,
364,564,
363,565,
362,560,
359,552,
358,545,
358,537,
357,529,
355,522,
352,516,
351,509,
350,504,
348,499,
347,495,
343,492,
341,492,
340,491,
340,490,
338,489,
335,489,
333,491,
333,491,
333,492,
332,495,
329,498,
329,500,
329,504,
330,506,
330,508,
329,510,
329,513,
330,518,
331,523,
331,533,
329,539,
328,544,
328,545,
328,543,
328,539,
326,534,
325,530,
325,525,
326,522,
326,517,
324,515,
322,513,
322,511,
322,509,
323,505,
322,504,
320,503,
321,502,
322,502,
322,502,
320,501,
320,502,
320,504,
320,508,
321,514,
320,523,
320,525,
320,525,
320,521,
321,518,
320,519,
319,514,
318,506,
319,497,
319,489,
318,482,
317,477,
316,473,
316,470,
316,467,
315,466,
314,466,
312,468,
311,469,
312,471,
310,474,
308,478,
308,482,
308,487,
308,491,
308,494,
307,501,
307,506,
307,512,
308,519,
308,526,
307,533,
307,545,
306,554,
306,556,
306,556,
304,556,
304,555,
303,553,
304,550,
304,547,
302,543,
301,540,
301,536,
301,533,
302,528,
301,525,
299,522,
300,519,
301,518,
301,516,
300,516,
299,517,
300,517,
301,516,
301,515,
301,515,
300,510,
300,504,
303,497,
303,490,
303,482,
301,478,
302,473,
302,468,
303,465,
304,462,
303,462,
303,464,
305,465,
307,466,
306,467,
305,467,
305,469,
306,469,
306,469,
305,470,
305,470,
305,471,
306,472,
307,471,
307,472,
306,474,
305,477,
305,480,
305,482,
305,482,
302,484,
302,486,
302,487,
302,488,
302,489,
301,489,
300,491,
302,493,
303,493,
303,494,
302,495,
301,496,
301,496,
301,496,
300,495,
299,494,
296,496,
296,498,
298,499,
297,499,
296,499,
295,500,
295,499,
295,500,
296,499,
294,500,
292,500,
292,501,
293,511,
293,523,
293,533,
292,541,
292,548,
293,559,
294,567,
294,574,
294,575,
295,571,
296,569,
296,569,
297,570,
296,575,
297,578,
298,579,
298,578,
298,577,
297,575,
297,571,
298,559,
299,546,
299,532,
299,520,
299,510,
300,505,
302,507,
302,507,
302,508,
303,512,
305,515,
306,520,
307,522,
308,522,
309,521,
312,522,
315,522,
317,522,
318,522,
321,520,
324,522,
330,522,
333,524,
336,527,
339,525,
343,520,
347,513,
350,509,
352,508,
354,514,
357,517,
361,522,
363,525,
364,530,
366,534,
368,538,
370,544,
372,543,
372,543,
372,547,
373,549,
375,550,
376,550,
375,547,
375,544,
375,546,
377,546,
377,544,
377,542,
375,541,
374,544,
375,548,
376,550,
374,550,
372,551,
371,546,
371,537,
370,527,
369,519,
367,512,
366,508,
366,504,
365,501,
363,497,
361,497,
359,497,
359,499,
359,501,
358,506,
356,512,
354,520,
355,525,
354,527,
353,530,
351,528,
349,527,
349,523,
349,518,
347,513,
346,511,
344,515,
343,523,
343,535,
343,546,
341,548,
339,545,
338,542,
337,536,
337,529,
335,523,
333,517,
333,511,
333,505,
334,500,
333,497,
332,496,
332,495,
333,495,
334,496,
333,495,
332,496,
332,498,
334,500,
333,503,
333,506,
331,510,
330,514,
332,520,
332,526,
331,532,
330,537,
330,542,
331,548,
331,555,
331,561,
330,568,
329,577,
330,577,
330,574,
330,571,
328,568,
328,565,
328,561,
329,558,
327,555,
325,554,
325,554,
325,554,
325,553,
326,552,
324,553,
324,553,
324,551,
324,549,
324,547,
322,545,
321,550,
321,556,
321,553,
320,547,
319,539,
318,532,
319,525,
318,518,
318,512,
318,510,
316,506,
316,492,
316,473,
316,453,
314,436,
312,422,
313,408,
313,394,
313,381,
311,371,
310,363,
309,357,
311,352,
311,349,
309,348,
308,349,
309,350,
311,353,
311,356,
311,360,
310,367,
310,374,
310,380,
310,387,
310,395,
309,403,
309,412,
309,420,
309,428,
308,437,
307,445,
308,453,
309,461,
311,467,
310,473,
309,480,
308,487,
309,493,
309,498,
308,502,
307,506,
307,511,
307,514,
307,516,
307,517,
305,519,
304,521,
305,521,
304,521,
303,520,
303,520,
303,520,
303,520,
303,518,
303,517,
301,516,
301,517,
301,518,
302,516,
303,515,
302,515,
302,514,
303,513,
305,511,
305,510,
306,508,
305,507,
307,505,
307,503,
308,501,
308,498,
307,498,
308,497,
308,496,
309,495,
309,493,
308,493,
308,492,
307,491,
308,489,
307,487,
306,485,
306,485,
306,484,
306,483,
305,483,
303,483,
302,483,
303,483,
303,483,
302,482,
301,481,
302,482,
303,481,
303,480,
303,480,
303,482,
304,484,
306,486,
307,487,
308,488,
308,491,
309,494,
312,496,
314,498,
317,500,
319,503,
322,507,
326,511,
329,514,
334,518,
336,522,
341,526,
345,531,
349,535,
352,538,
356,544,
358,547,
362,551,
365,554,
368,557,
370,558,
371,561,
373,563,
375,564,
377,565,
377,567,
377,569,
378,571,
379,573,
380,573,
379,573,
377,574,
377,575,
377,575,
378,575,
377,575,
376,575,
376,575,
377,573,
378,570,
377,568,
375,568,
374,567,
374,566,
374,564,
374,562,
373,561,
373,560,
373,559,
372,558,
372,557,
370,556,
369,556,
370,555,
369,554,
369,552,
367,550,
365,551,
365,549,
364,547,
363,546,
361,544,
360,543,
359,542,
358,540,
357,539,
355,538,
352,538,
351,538,
351,536,
350,535,
347,534,
344,535,
343,535,
343,535,
342,534,
340,533,
338,534,
338,534,
339,534,
337,531,
335,531,
334,531,
333,531,
334,530,
334,530,
332,529,
331,529,
331,530,
332,529,
332,528,
331,529,
330,528,
331,530,
332,530,
332,530,
331,531,
331,533,
331,536,
332,538,
333,539,
332,539,
332,540,
332,541,
332,541,
333,540,
332,539,
330,538,
331,539,
332,538,
333,536,
332,535,
331,535,
331,536,
332,536,
333,534,
332,533,
331,531,
330,528,
330,524,
329,520,
329,517,
327,514,
325,513,
325,511,
326,509,
325,507,
324,505,
324,506,
323,505,
323,504,
323,503,
320,503,
320,505,
319,506,
319,505,
318,506,
316,504,
315,504,
315,503,
315,503,
315,502,
314,502,
312,502,
312,503,
313,502,
314,502,
313,501,
312,500,
313,501,
313,501,
314,501,
312,501,
312,501,
312,501,
313,500,
313,499,
312,498,
312,498,
312,499,
312,499,
313,498,
312,498,
311,499,
310,500,
311,501,
311,499,
311,499,
310,499,
310,499,
311,499,
311,498,
311,498,
310,498,
309,498,
310,498,
310,497,
309,496,
308,496,
308,498,
308,497,
308,497,
308,495,
307,495,
307,495,
309,494,
309,494,
309,493,
307,492,
305,493,
306,492,
307,491,
307,490,
306,490,
305,491,
304,491,
304,492,
305,492,
304,492,
304,493,
303,493,
304,493,
304,492,
303,492,
303,492,
303,492,
304,492,
305,491,
305,491,
305,491,
306,493,
307,495,
309,496,
309,498,
308,500,
310,502,
311,504,
312,506,
311,507,
310,507,
309,508,
311,508,
311,507,
310,506,
309,506,
309,505,
310,504,
312,502,
311,501,
310,501,
309,503,
310,503,
310,504,
310,504,
309,505,
308,507,
308,508,
309,507,
309,507,
309,508,
309,509,
310,510,
312,511,
313,512,
313,512,
313,515,
315,518,
319,520,
322,523,
324,526,
327,531,
331,536,
335,540,
339,543,
341,548,
344,553,
348,556,
352,558,
356,560,
358,562,
362,565,
365,568,
369,570,
372,573,
374,575,
375,578,
378,581,
380,582,
382,587,
382,591,
383,597,
383,602,
385,605,
386,611,
385,622,
385,636,
385,650,
386,664,
387,676,
385,685,
385,692,
384,695,
385,695,
385,696,
385,697,
384,699,
383,697,
383,695,
383,691,
382,682,
380,673,
380,669,
380,664,
380,660,
379,657,
376,652,
375,650,
374,647,
373,644,
371,639,
369,629,
367,615,
368,597,
367,579,
366,561,
364,545,
362,531,
361,520,
360,509,
359,503,
356,501,
353,501,
352,503,
352,506,
351,508,
348,510,
346,511,
345,507,
345,501,
344,496,
342,490,
341,487,
341,485,
343,484,
342,482,
342,483,
340,489,
340,496,
340,499,
340,501,
339,502,
338,505,
338,507,
339,511,
340,514,
338,518,
338,520,
338,522,
339,523,
340,520,
339,518,
338,517,
339,518,
340,521,
341,520,
341,520,
340,520,
341,522,
342,524,
342,524,
342,522,
341,519,
341,518,
341,515,
343,514,
343,515,
342,522,
342,529,
342,537,
342,537,
341,534,
339,530,
338,528,
338,526,
339,522,
338,519,
336,521,
335,527,
334,531,
334,535,
334,537,
333,540,
331,546,
332,554,
332,554,
331,549,
330,540,
328,532,
328,524,
327,515,
327,507,
325,501,
323,497,
323,495,
323,492,
323,489,
322,484,
321,480,
320,479,
320,478,
319,474,
318,472,
316,476,
316,480,
317,485,
317,494,
316,503,
315,511,
314,523,
314,531,
316,537,
315,542,
314,546,
315,545,
316,542,
317,539,
318,536,
317,531,
318,523,
317,515,
318,507,
317,499,
316,490,
314,483,
314,474,
315,466,
314,460,
312,454,
311,453,
311,452,
311,450,
311,445,
309,437,
308,432,
308,431,
309,433,
308,435,
307,440,
306,445,
306,445,
306,443,
306,441,
304,440,
303,441,
303,444,
304,449,
304,451,
304,453,
304,457,
305,460,
306,465,
307,470,
305,476,
304,490,
305,503,
306,518,
306,534,
306,543,
307,546,
308,548,
310,548,
311,546,
308,539,
307,529,
306,519,
307,508,
307,497,
306,488,
306,481,
307,477,
307,470,
308,461,
308,452,
308,443,
308,435,
308,427,
308,419,
308,413,
307,408,
308,404,
309,401,
310,398,
310,395,
310,395,
311,398,
313,400,
316,402,
318,405,
319,410,
322,415,
326,423,
330,430,
333,438,
335,447,
339,456,
344,466,
349,475,
353,484,
356,493,
360,504,
364,514,
369,522,
372,530,
375,539,
378,547,
382,554,
386,560,
389,566,
390,573,
391,580,
393,588,
396,594,
398,600,
398,605,
397,610,
398,614,
400,617,
400,620,
400,624,
400,627,
400,631,
399,632,
399,632,
397,632,
395,632,
394,631,
395,627,
394,625,
391,624,
388,623,
386,622,
387,619,
386,613,
385,604,
382,596,
382,587,
381,578,
381,570,
379,562,
377,556,
376,549,
375,542,
376,534,
375,526,
372,518,
370,511,
369,504,
368,496,
366,489,
364,483,
362,478,
361,473,
360,469,
358,465,
355,464,
353,462,
353,462,
352,460,
350,459,
347,461,
346,463,
346,466,
346,470,
345,473,
343,478,
343,484,
343,489,
345,493,
346,496,
345,501,
344,506,
344,511,
345,515,
346,516,
345,519,
345,522,
345,525,
346,528,
347,532,
346,534,
346,537,
346,540,
346,541,
346,542,
346,542,
345,542,
346,543,
347,543,
347,543,
347,542,
345,542,
345,543,
346,542,
347,541,
346,541,
344,540,
343,538,
343,537,
343,533,
342,531,
341,529,
340,528,
341,527,
342,525,
341,525,
339,526,
338,527,
338,529,
338,529,
337,529,
335,530,
334,530,
333,531,
333,532,
332,532,
330,533,
328,533,
328,533,
328,530,
327,527,
326,523,
325,521,
323,519,
323,517,
324,515,
322,512,
319,511,
319,510,
319,508,
319,505,
317,503,
316,503,
315,503,
317,501,
318,501,
317,502,
316,505,
315,508,
316,512,
316,516,
314,524,
312,532,
312,536,
313,535,
314,532,
312,529,
311,526,
311,523,
312,520,
312,515,
311,511,
310,507,
311,505,
311,502,
311,498,
310,495,
309,495,
310,493,
311,492,
312,490,
312,490,
311,489,
311,490,
311,489,
312,488,
313,488,
311,487,
311,488,
311,487,
312,485,
311,483,
309,483,
310,483,
310,483,
311,482,
311,480,
310,479,
309,480,
310,481,
310,480,
310,480,
309,478,
309,479,
310,477,
311,475,
311,472,
310,471,
310,471,
310,470,
311,468,
310,467,
309,465,
309,464,
308,462,
309,460,
309,459,
308,458,
307,459,
308,460,
309,460,
310,460,
310,460,
309,462,
311,464,
313,466,
315,467,
317,469,
318,473,
320,477,
323,481,
327,485,
329,489,
333,496,
336,503,
341,509,
345,514,
350,520,
353,526,
357,533,
362,540,
368,544,
371,548,
374,552,
377,556,
382,559,
386,561,
389,562,
391,564,
393,567,
396,568,
399,570,
400,572,
401,576,
402,578,
403,579,
405,580,
405,582,
406,585,
405,589,
407,593,
408,596,
407,597,
405,598,
404,599,
403,600,
403,599,
403,597,
402,597,
399,596,
399,595,
399,595,
398,593,
396,587,
394,582,
393,576,
393,570,
392,564,
390,559,
388,555,
387,552,
388,547,
386,542,
384,536,
382,533,
381,531,
379,533,
378,533,
376,533,
373,532,
371,530,
369,529,
367,528,
364,528,
361,534,
360,542,
359,544,
358,539,
356,533,
354,526,
353,520,
353,512,
352,505,
351,497,
349,490,
347,484,
348,479,
347,476,
346,472,
344,470,
344,471,
344,475,
344,478,
343,481,
342,484,
341,490,
342,495,
343,498,
342,500,
342,500,
340,501,
340,502,
340,503,
340,503,
338,506,
336,509,
336,513,
336,516,
336,520,
336,524,
335,530,
335,536,
336,539,
337,541,
336,541,
335,544,
335,550,
335,550,
335,545,
333,538,
332,532,
331,526,
331,520,
331,513,
330,510,
329,512,
328,516,
327,523,
327,526,
325,529,
324,531,
324,533,
324,533,
322,531,
322,525,
319,516,
319,507,
318,497,
318,487,
318,476,
316,468,
316,461,
316,455,
315,449,
314,446,
312,444,
311,443,
312,442,
313,441,
311,442,
310,444,
309,451,
309,459,
310,464,
309,469,
309,473,
308,477,
309,476,
310,473,
311,468,
310,467,
309,469,
310,472,
310,474,
310,476,
309,478,
309,481,
308,482,
309,484,
310,488,
308,490,
307,495,
307,499,
307,504,
308,509,
306,514,
306,521,
305,532,
306,545,
306,557,
306,558,
305,556,
306,552,
306,548,
307,544,
305,539,
304,535,
304,527,
304,520,
305,511,
305,504,
303,497,
303,493,
304,486,
306,479,
306,473,
305,469,
303,466,
303,463,
304,460,
303,458,
302,457,
302,460,
303,463,
304,467,
304,470,
304,475,
303,480,
304,483,
306,486,
306,489,
307,496,
308,504,
309,510,
309,515,
310,517,
310,519,
310,522,
312,523,
315,524,
315,523,
315,522,
314,523,
316,523,
317,522,
318,521,
317,519,
317,517,
318,514,
318,510,
320,508,
320,506,
320,507,
321,516,
322,521,
323,524,
323,523,
321,522,
322,520,
321,518,
320,516,
319,513,
318,514,
317,514,
318,512,
318,509,
317,505,
315,501,
315,495,
316,488,
315,482,
314,477,
312,475,
311,472,
312,472,
312,472,
312,474,
311,476,
311,479,
314,481,
315,487,
317,494,
319,500,
322,505,
326,513,
330,512,
334,508,
338,500,
342,493,
349,487,
354,480,
360,474,
363,468,
367,465,
373,462,
377,460,
381,461,
384,462,
386,465,
390,469,
393,471,
396,474,
396,478,
398,481,
399,485,
401,489,
402,494,
402,502,
402,513,
403,520,
405,525,
405,528,
405,531,
404,533,
405,536,
406,539,
406,544,
405,548,
404,551,
404,553,
404,553,
404,551,
402,549,
399,549,
399,550,
399,549,
399,548,
397,548,
395,548,
394,550,
394,551,
394,550,
392,549,
390,549,
388,548,
387,547,
386,544,
383,541,
380,539,
378,538,
376,536,
375,533,
372,530,
369,528,
367,527,
366,525,
363,523,
361,521,
358,521,
354,520,
353,519,
352,518,
351,516,
347,515,
345,516,
345,515,
344,515,
342,515,
340,516,
338,518,
338,518,
338,518,
338,518,
337,517,
335,518,
335,518,
336,518,
336,518,
337,519,
336,520,
336,520,
337,519,
338,520,
336,520,
336,522,
337,522,
337,522,
338,523,
337,523,
335,524,
335,525,
336,526,
336,527,
335,529,
334,531,
334,535,
335,535,
335,533,
334,531,
332,531,
333,533,
333,533,
332,533,
331,534,
330,534,
330,536,
330,537,
330,537,
329,536,
328,536,
328,536,
329,536,
329,536,
329,535,
327,534,
326,535,
327,535,
328,535,
327,536,
325,537,
324,541,
324,547,
324,555,
324,563,
322,569,
322,564,
322,553,
321,542,
320,529,
318,519,
317,508,
317,498,
317,488,
316,480,
315,474,
315,470,
315,467,
315,466,
315,464,
314,464,
313,465,
313,466,
313,465,
314,466,
312,466,
311,468,
310,469,
311,471,
312,473,
310,474,
309,476,
310,478,
311,480,
312,481,
313,481,
312,481,
313,479,
314,476,
314,473,
314,469,
312,466,
312,464,
313,462,
313,458,
312,455,
312,454,
312,453,
313,452,
313,450,
313,449,
313,449,
313,450,
313,452,
314,451,
314,452,
311,454,
311,456,
312,458,
314,459,
313,462,
311,464,
310,468,
310,470,
309,473,
309,475,
308,477,
307,480,
307,481,
309,481,
308,481,
307,483,
307,484,
308,486,
309,488,
308,490,
308,490,
307,493,
307,495,
307,496,
308,496,
308,496,
306,496,
307,496,
307,495,
308,494,
306,494,
307,495,
307,496,
308,495,
307,496,
306,497,
304,500,
303,502,
303,508,
303,513,
302,516,
301,518,
300,518,
301,515,
301,511,
300,508,
300,506,
300,504,
300,502,
300,498,
298,496,
299,495,
299,494,
299,492,
301,490,
301,490,
301,491,
303,492,
306,492,
309,491,
311,492,
313,494,
317,498,
320,502,
325,506,
329,509,
332,515,
336,520,
341,525,
346,529,
351,533,
354,538,
358,544,
363,547,
369,548,
374,548,
378,548,
381,548,
385,549,
390,549,
393,550,
396,550,
398,552,
400,553,
403,555,
404,556,
405,557,
405,557,
406,556,
408,555,
409,554,
408,553,
407,552,
406,551,
406,551,
406,548,
404,547,
402,546,
401,545,
400,544,
399,542,
396,541,
393,541,
392,542,
392,541,
391,539,
390,539,
387,540,
386,540,
385,539,
384,540,
383,540,
380,540,
379,543,
379,543,
378,543,
377,543,
375,545,
373,547,
373,549,
373,550,
371,550,
367,548,
364,548,
362,546,
361,543,
359,542,
357,542,
353,544,
353,545,
352,546,
351,546,
348,545,
347,545,
347,542,
347,535,
346,528,
345,522,
344,516,
343,511,
344,507,
343,506,
343,507,
343,509,
343,511,
344,511,
344,512,
343,512,
342,511,
342,510,
344,507,
343,506,
343,505,
343,507,
344,508,
345,508,
346,507,
345,506,
344,506,
345,505,
345,504,
346,502,
345,501,
344,500,
343,500,
344,499,
344,498,
343,498,
341,497,
340,496,
340,496,
341,496,
340,499,
338,503,
338,507,
337,510,
337,512,
336,515,
334,518,
333,522,
333,526,
334,521,
334,514,
332,506,
331,499,
331,493,
331,485,
331,478,
330,472,
330,466,
330,462,
330,459,
331,455,
330,453,
329,450,
328,449,
328,445,
327,444,
326,442,
324,442,
325,443,
325,444,
326,444,
324,446,
322,449,
323,452,
322,455,
322,457,
321,459,
320,462,
319,465,
320,466,
320,469,
319,472,
318,476,
318,479,
318,482,
318,485,
316,487,
315,489,
315,492,
315,493,
316,494,
314,495,
314,496,
313,497,
314,498,
314,498,
314,498,
313,498,
313,501,
314,501,
315,500,
314,500,
313,500,
313,501,
313,502,
314,502,
314,501,
314,501,
312,502,
313,502,
313,503,
313,506,
312,508,
310,511,
311,512,
312,512,
312,511,
310,510,
309,511,
309,510,
309,509,
309,507,
308,508,
306,511,
307,512,
308,512,
308,512,
308,512,
307,512,
308,512,
310,511,
310,509,
310,507,
309,505,
310,502,
312,498,
314,495,
314,493,
315,494,
317,495,
321,495,
324,496,
327,497,
330,499,
333,502,
338,505,
342,508,
346,511,
349,515,
354,518,
359,520,
364,521,
368,523,
371,526,
375,530,
380,532,
384,535,
387,538,
388,541,
392,544,
396,546,
400,547,
403,549,
403,550,
405,553,
407,556,
408,559,
409,563,
408,564,
407,566,
407,568,
408,568,
407,567,
405,567,
404,568,
402,567,
402,565,
401,562,
398,561,
396,561,
396,559,
395,559,
393,559,
390,558,
387,559,
386,559,
385,557,
385,556,
382,554,
380,554,
380,552,
379,549,
378,546,
375,543,
373,542,
371,540,
370,537,
368,535,
367,533,
364,531,
362,531,
362,529,
360,526,
357,523,
354,524,
352,524,
352,523,
351,522,
348,521,
346,522,
344,523,
345,522,
344,521,
342,521,
341,520,
341,521,
341,520,
341,517,
341,516,
341,515,
341,517,
342,518,
342,518,
342,518,
341,519,
340,520,
340,522,
341,523,
340,521,
339,522,
339,522,
339,522,
339,521,
339,520,
338,519,
337,519,
337,519,
337,519,
337,518,
335,517,
334,518,
335,519,
337,519,
336,518,
335,518,
335,518,
335,519,
335,518,
335,518,
333,519,
332,520,
331,519,
331,518,
331,516,
329,515,
328,514,
328,513,
329,512,
329,509,
328,508,
327,508,
327,508,
327,507,
327,508,
325,512,
324,516,
324,522,
324,526,
324,529,
324,531,
323,534,
322,539,
322,543,
322,537,
321,525,
320,511,
319,498,
320,484,
320,471,
319,460,
317,449,
316,441,
316,433,
316,426,
314,420,
313,416,
312,415,
312,414,
312,413,
311,413,
309,414,
309,417,
309,420,
309,423,
308,428,
306,433,
305,440,
305,447,
305,458,
304,469,
303,482,
303,496,
303,511,
304,524,
304,536,
304,546,
303,554,
304,560,
304,565,
304,569,
303,573,
304,577,
305,572,
306,560,
306,547,
304,532,
304,519,
303,506,
303,495,
303,484,
303,475,
302,467,
302,462,
303,457,
304,452,
303,447,
302,444,
302,442,
303,441,
303,440,
303,440,
302,442,
302,444,
303,445,
304,447,
303,450,
302,453,
302,457,
303,461,
303,463,
303,465,
302,468,
300,471,
302,474,
302,476,
302,477,
301,479,
301,480,
303,480,
304,481,
304,481,
303,481,
302,483,
302,484,
303,485,
303,484,
302,485,
301,486,
303,487,
304,486,
304,486,
304,486,
303,486,
304,486,
305,487,
305,487,
305,487,
305,488,
306,488,
307,488,
307,488,
305,488,
304,489,
305,490,
306,489,
307,489,
305,489,
303,491,
303,492,
303,492,
304,492,
304,494,
304,496,
306,499,
309,501,
311,502,
313,505,
315,509,
318,512,
321,517,
326,521,
329,525,
333,530,
337,535,
343,538,
348,541,
352,543,
356,547,
362,550,
367,553,
373,555,
377,556,
379,558,
382,560,
387,561,
391,562,
394,563,
395,565,
396,568,
398,570,
402,571,
403,573,
403,573,
403,575,
404,575,
405,574,
405,574,
404,573,
404,574,
405,573,
405,572,
406,571,
405,570,
403,570,
404,569,
404,569,
404,568,
402,569,
400,570,
401,570,
401,569,
401,569,
400,571,
398,573,
397,577,
397,579,
396,579,
395,581,
393,582,
392,585,
392,586,
391,588,
389,588,
387,590,
386,593,
385,595,
383,593,
381,590,
378,589,
376,587,
374,584,
373,580,
370,577,
367,574,
364,571,
362,567,
361,563,
359,558,
357,554,
354,550,
354,546,
353,542,
351,539,
350,540,
348,547,
348,554,
348,557,
346,556,
345,555,
344,553,
344,551,
344,548,
343,545,
342,540,
342,537,
343,534,
343,531,
344,528,
343,527,
342,527,
342,527,
342,528,
343,531,
343,535,
342,539,
343,542,
344,540,
345,538,
344,538,
343,537,
343,537,
343,536,
344,537,
342,540,
342,545,
342,547,
342,546,
341,541,
341,535,
339,528,
339,522,
338,515,
338,507,
338,500,
335,492,
334,484,
335,478,
335,474,
333,480,
331,486,
330,489,
330,485,
329,474,
327,462,
326,451,
325,442,
324,433,
324,424,
322,417,
320,412,
319,407,
318,404,
318,401,
318,399,
316,400,
315,403,
316,406,
317,411,
316,417,
315,423,
313,431,
315,438,
315,445,
314,451,
313,458,
312,465,
313,473,
312,478,
312,483,
311,487,
309,493,
311,497,
311,500,
312,502,
310,505,
310,509,
311,511,
312,513,
312,514,
310,516,
309,517,
310,518,
310,518,
311,516,
309,513,
308,511,
308,509,
309,504,
309,500,
308,497,
308,495,
307,492,
308,489,
309,487,
309,484,
307,482,
307,481,
308,480,
308,478,
308,477,
307,476,
307,475,
307,474,
308,472,
307,471,
306,472,
306,473,
306,474,
307,475,
307,475,
306,477,
306,479,
307,480,
308,481,
307,481,
306,483,
306,484,
307,487,
307,487,
307,488,
307,490,
306,493,
306,494,
308,494,
308,493,
307,493,
306,494,
308,494,
308,494,
308,495,
306,495,
306,496,
306,497,
308,496,
308,495,
306,495,
305,495,
305,494,
306,493,
307,492,
305,492,
305,493,
306,493,
306,493,
307,492,
306,491,
305,492,
305,492,
305,491,
305,490,
304,490,
303,489,
303,488,
304,487,
303,485,
303,482,
303,481,
302,482,
303,481,
303,480,
302,480,
299,481,
298,481,
298,481,
298,480,
297,479,
296,479,
297,480,
297,481,
298,480,
298,481,
296,481,
296,482,
296,483,
298,482,
298,481,
298,480,
298,480,
299,480,
301,479,
301,479,
300,478,
300,478,
301,478,
301,477,
301,476,
301,477,
301,478,
302,478,
303,479,
304,483,
305,483,
305,487,
308,489,
312,492,
316,495,
318,498,
321,501,
325,503,
329,506,
333,509,
337,513,
341,518,
346,521,
351,525,
357,528,
361,531,
364,535,
369,538,
375,542,
378,545,
381,548,
384,552,
387,556,
391,561,
394,564,
395,567,
396,570,
397,573,
400,575,
401,576,
401,577,
400,578,
399,579,
400,580,
400,579,
399,578,
397,577,
395,577,
394,576,
393,574,
391,573,
389,572,
386,571,
385,571,
384,570,
383,571,
380,571,
378,571,
377,572,
376,571,
374,571,
371,571,
370,572,
369,573,
368,573,
367,571,
366,571,
364,571,
364,569,
365,565,
364,563,
363,561,
362,560,
361,560,
361,560,
360,560,
359,560,
356,561,
355,562,
355,561,
353,560,
351,559,
349,559,
349,557,
349,554,
348,549,
346,544,
343,541,
342,538,
341,535,
340,532,
338,529,
336,526,
335,524,
335,522,
335,520,
334,519,
332,519,
331,521,
331,523,
330,523,
329,523,
327,524,
328,525,
329,526,
330,526,
330,526,
329,527,
329,530,
330,531,
331,531,
331,530,
331,529,
331,529,
333,528,
334,527,
334,525,
333,525,
333,525,
335,525,
336,525,
336,525,
336,523,
336,524,
336,524,
338,523,
337,522,
335,520,
334,519,
333,517,
333,516,
332,513,
331,510,
329,509,
329,508,
329,508,
328,506,
326,506,
324,505,
323,504,
323,502,
322,499,
320,498,
319,496,
319,494,
319,492,
319,491,
317,490,
315,489,
316,490,
316,489,
316,489,
315,490,
315,491,
315,492,
315,491,
315,490,
313,491,
312,491,
311,492,
311,493,
311,493,
311,493,
310,494,
309,495,
309,495,
309,495,
307,495,
305,493,
304,493,
304,491,
305,488,
303,487,
302,486,
301,484,
301,483,
301,482,
301,480,
300,479,
300,479,
301,478,
301,478,
302,479,
301,479,
302,480,
303,480,
304,480,
304,480,
303,480,
304,482,
304,483,
304,484,
305,484,
304,485,
304,486,
305,486,
306,486,
306,486,
306,488,
306,490,
307,492,
309,493,
309,494,
308,493,
308,494,
309,496,
310,497,
311,498,
310,499,
310,500,
310,501,
310,500,
310,499,
309,500,
307,503,
307,510,
309,517,
309,510,
309,502,
308,493,
309,486,
309,480,
310,474,
309,469,
308,466,
308,466,
308,469,
308,475,
307,483,
305,488,
305,490,
305,489,
306,487,
305,486,
303,486,
302,486,
303,487,
303,487,
301,488,
299,487,
297,488,
297,489,
298,488,
298,486,
297,485,
297,484,
298,483,
299,482,
299,481,
300,481,
299,481,
301,481,
303,481,
304,480,
304,481,
304,482,
306,483,
308,486,
310,488,
311,491,
312,493,
315,497,
319,502,
322,506,
324,513,
326,520,
330,528,
336,539,
339,557,
343,571,
346,581,
349,589,
353,594,
357,593,
360,591,
363,588,
367,585,
371,583,
374,581,
376,580,
377,580,
379,582,
382,581,
383,580,
384,579,
384,579,
383,579,
384,580,
385,582,
385,583,
385,582,
384,574,
384,562,
383,550,
381,538,
379,526,
376,517,
375,508,
374,502,
371,498,
369,495,
367,494,
367,496,
367,499,
365,504,
363,511,
360,518,
359,525,
358,529,
357,535,
355,540,
354,547,
354,552,
353,556,
352,561,
350,566,
348,566,
347,565,
347,563,
346,560,
344,553,
343,547,
343,541,
343,534,
342,528,
341,521,
339,515,
338,509,
338,504,
338,498,
336,493,
335,490,
334,489,
335,486,
336,483,
335,480,
334,479,
333,477,
335,476,
336,475,
335,474,
334,475,
335,476,
335,477,
335,479,
335,481,
333,484,
332,486,
333,490,
333,493,
333,496,
332,499,
331,504,
332,508,
333,511,
333,515,
331,519,
330,523,
332,526,
332,529,
331,530,
329,532,
329,533,
329,534,
331,534,
332,534,
331,534,
330,534,
331,534,
332,535,
332,535,
331,536,
330,539,
331,541,
332,540,
333,539,
332,536,
331,533,
330,529,
331,526,
331,522,
331,519,
330,519,
330,519,
331,518,
331,517,
329,516,
329,516,
329,516,
330,516,
331,516,
330,516,
329,517,
329,518,
329,518,
329,518,
328,519,
327,520,
326,521,
325,523,
326,523,
325,523,
322,523,
321,524,
321,523,
320,522,
319,521,
316,520,
315,519,
316,517,
316,515,
317,513,
316,510,
316,509,
316,507,
317,504,
317,502,
316,501,
316,501,
316,501,
317,501,
317,500,
316,501,
314,503,
314,503,
314,504,
314,505,
313,505,
311,505,
312,504,
313,503,
314,502,
314,501,
313,501,
314,501,
315,502,
315,501,
315,500,
313,499,
313,499,
314,499,
315,500,
315,499,
315,499,
316,499,
317,498,
318,498,
317,500,
316,504,
316,507,
316,510,
316,509,
315,510,
313,512,
313,515,
314,518,
316,519,
316,521,
317,521,
317,522,
320,523,
321,522,
323,523,
324,526,
326,532,
330,537,
333,542,
335,546,
338,551,
341,555,
345,559,
349,561,
353,563,
356,565,
360,570,
364,574,
369,579,
373,582,
375,586,
379,590,
383,593,
387,596,
390,597,
390,597,
392,598,
394,597,
396,597,
396,595,
396,592,
396,589,
397,585,
399,581,
398,577,
397,574,
396,571,
397,569,
397,567,
397,565,
396,564,
395,563,
394,562,
393,561,
393,560,
391,559,
389,559,
389,560,
387,560,
386,561,
384,564,
382,568,
380,572,
380,575,
379,577,
377,575,
375,574,
374,572,
374,570,
374,567,
372,565,
370,562,
369,559,
368,556,
366,553,
364,550,
362,548,
359,546,
359,543,
357,540,
356,537,
354,536,
352,536,
351,538,
351,546,
350,547,
348,544,
346,540,
346,536,
346,528,
345,518,
343,504,
342,490,
343,478,
343,465,
343,454,
343,445,
342,439,
343,433,
344,429,
344,427,
344,426,
343,428,
344,429,
345,432,
345,435,
344,439,
343,444,
343,450,
344,454,
345,459,
344,464,
343,471,
343,477,
344,483,
344,488,
343,493,
342,497,
342,503,
342,509,
341,514,
339,518,
339,525,
338,531,
339,538,
338,546,
338,552,
336,556,
335,558,
335,562,
334,568,
333,571,
331,572,
329,572,
328,569,
328,566,
327,562,
325,559,
324,556,
324,552,
324,549,
322,545,
320,541,
319,537,
318,534,
318,529,
318,524,
316,519,
314,516,
315,512,
316,507,
316,503,
315,500,
315,497,
317,493,
318,490,
318,486,
317,483,
316,481,
317,480,
317,478,
317,476,
317,476,
315,477,
315,477,
316,478,
316,478,
315,479,
314,480,
313,479,
314,480,
315,480,
313,480,
312,482,
312,481,
313,482,
313,482,
312,482,
310,483,
310,484,
311,484,
310,484,
310,484,
308,484,
307,485,
308,486,
307,487,
306,488,
305,489,
305,490,
305,490,
304,490,
304,490,
303,492,
303,491,
303,492,
303,491,
305,491,
303,490,
303,490,
304,489,
305,489,
305,488,
303,488,
304,489,
304,490,
305,490,
306,490,
305,490,
305,490,
306,491,
306,490,
306,490,
305,489,
305,489,
305,489,
305,487,
305,486,
303,484,
303,484,
304,482,
304,482,
304,482,
304,482,
304,484,
305,485,
307,485,
307,484,
305,484,
304,485,
304,485,
305,484,
305,484,
303,485,
302,485,
301,486,
303,487,
304,486,
303,486,
302,486,
304,486,
305,485,
306,486,
307,487,
308,488,
309,491,
313,493,
316,495,
319,498,
321,502,
324,506,
328,512,
332,518,
335,522,
339,527,
343,533,
349,538,
354,542,
358,547,
361,551,
364,557,
368,562,
374,565,
377,569,
381,572,
385,576,
390,580,
394,583,
398,586,
399,589,
401,593,
403,598,
405,601,
406,603,
406,605,
406,607,
407,608,
407,609,
406,610,
404,609,
404,608,
403,608,
402,606,
402,604,
400,601,
399,600,
399,597,
398,595,
397,591,
395,590,
394,589,
393,589,
393,589,
392,588,
389,588,
387,589,
386,590,
385,590,
385,588,
384,587,
381,585,
381,584,
381,581,
380,576,
378,571,
376,566,
375,561,
374,555,
372,550,
371,545,
368,540,
366,537,
366,534,
366,531,
364,528,
362,524,
361,518,
360,514,
360,510,
359,507,
357,506,
356,506,
356,506,
357,507,
355,509,
353,510,
351,514,
350,517,
350,520,
349,523,
347,526,
346,529,
346,534,
346,538,
345,542,
344,546,
343,551,
343,555,
343,558,
343,562,
342,567,
341,574,
342,579,
343,582,
343,583,
343,584,
343,584,
344,583,
345,579,
345,571,
344,563,
343,556,
343,551,
343,546,
343,542,
343,537,
342,533,
343,530,
344,529,
344,526,
343,520,
341,514,
340,507,
340,500,
339,493,
337,488,
335,484,
334,481,
334,479,
333,477,
332,476,
330,479,
330,482,
330,487,
329,490,
329,495,
327,499,
326,503,
326,507,
325,512,
325,519,
324,522,
323,524,
324,524,
324,522,
323,521,
321,520,
319,519,
320,518,
320,517,
320,515,
318,514,
316,512,
316,511,
317,509,
316,508,
315,507,
313,506,
314,505,
314,502,
315,500,
315,498,
313,496,
314,494,
314,495,
314,498,
312,497,
311,491,
311,484,
311,477,
311,469,
310,463,
310,457,
310,453,
310,449,
311,445,
309,442,
309,441,
308,440,
309,438,
309,438,
308,437,
308,439,
308,440,
309,442,
310,443,
310,445,
309,447,
310,448,
311,449,
311,452,
311,454,
309,457,
307,460,
308,463,
307,466,
306,469,
305,472,
305,476,
306,480,
307,483,
307,486,
306,489,
305,491,
306,492,
306,491,
307,493,
306,494,
306,497,
308,499,
309,500,
310,501,
310,501,
310,502,
311,502,
313,501,
313,501,
314,501,
313,500,
314,499,
315,499,
316,499,
314,499,
312,499,
313,499,
312,498,
312,498,
311,497,
310,497,
310,497,
310,496,
311,496,
310,497,
309,499,
309,501,
310,505,
311,509,
311,512,
310,516,
311,520,
312,524,
314,527,
316,532,
317,538,
320,544,
324,548,
327,550,
330,551,
333,551,
337,547,
342,542,
346,537,
351,533,
355,531,
359,531,
364,532,
370,535,
373,542,
375,541,
379,535,
384,527,
389,518,
391,509,
393,503,
395,498,
399,494,
401,491,
402,488,
402,488,
402,489,
404,490,
405,492,
405,494,
404,496,
403,500,
404,504,
405,508,
405,512,
405,516,
403,520,
402,523,
403,526,
402,527,
402,530,
399,533,
399,535,
398,538,
397,540,
397,543,
395,547,
395,549,
394,551,
395,552,
394,553,
393,554,
391,556,
391,558,
391,560,
389,561,
387,562,
385,564,
385,565,
383,565,
381,564,
378,563,
377,562,
375,561,
374,559,
371,556,
367,555,
366,553,
364,552,
363,549,
362,545,
359,542,
357,540,
356,537,
355,533,
354,530,
352,528,
351,528,
351,531,
351,536,
350,542,
348,545,
347,545,
347,542,
347,539,
346,535,
345,531,
344,527,
345,524,
345,520,
345,516,
345,515,
345,515,
345,514,
345,513,
345,514,
344,516,
343,518,
343,520,
344,522,
344,524,
343,526,
342,529,
341,531,
342,531,
342,530,
340,528,
339,524,
339,520,
338,516,
338,512,
337,509,
336,506,
336,503,
336,501,
336,499,
335,498,
334,497,
333,497,
333,496,
334,495,
333,495,
331,496,
330,499,
331,498,
331,496,
330,494,
328,493,
328,491,
328,490,
328,489,
328,486,
325,486,
325,488,
325,489,
325,489,
324,490,
324,490,
322,491,
323,490,
324,490,
324,491,
322,491,
321,492,
321,493,
321,493,
321,495,
320,495,
318,496,
319,497,
320,497,
320,496,
319,496,
319,495,
320,494,
321,494,
322,494,
322,494,
321,495,
321,496,
323,498,
324,499,
325,499,
325,499,
326,499,
330,497,
331,495,
332,493,
332,491,
334,491,
335,490,
337,491,
337,492,
337,496,
337,499,
338,501,
338,501,
337,500,
336,501,
335,502,
336,502,
336,502,
333,500,
331,500,
330,500,
329,499,
328,497,
326,495,
324,494,
322,494,
321,494,
321,494,
320,495,
319,495,
317,495,
316,494,
316,492,
315,490,
314,487,
313,485,
313,482,
312,479,
311,475,
310,473,
309,472,
309,472,
310,472,
310,472,
308,472,
307,473,
306,474,
306,476,
306,477,
305,479,
305,480,
305,481,
306,482,
307,482,
306,482,
304,482,
305,481,
305,480,
304,477,
304,474,
302,472,
302,470,
303,469,
303,467,
302,467,
301,467,
301,468,
302,470,
303,473,
304,475,
304,477,
305,480,
308,484,
311,490,
314,496,
316,499,
319,501,
322,502,
326,503,
329,504,
331,507,
335,512,
340,517,
345,524,
348,532,
352,540,
355,548,
361,555,
366,561,
372,566,
376,571,
380,575,
385,578,
389,580,
391,584,
393,588,
395,593,
397,599,
399,602,
400,604,
400,606,
399,608,
400,610,
400,610,
400,610,
398,611,
397,610,
396,609,
396,608,
394,602,
392,596,
390,591,
390,589,
389,587,
388,585,
386,580,
384,574,
382,568,
382,562,
380,557,
377,551,
375,544,
374,539,
374,534,
373,528,
371,523,
370,518,
370,512,
369,508,
369,503,
368,500,
367,498,
366,497,
365,496,
365,495,
363,496,
361,496,
360,497,
359,498,
358,500,
357,499,
355,501,
353,505,
352,509,
351,516,
349,521,
346,525,
344,528,
344,532,
343,535,
342,537,
340,539,
338,542,
339,544,
340,546,
341,546,
340,546,
339,544,
339,541,
340,537,
339,533,
338,530,
337,527,
338,524,
339,521,
339,519,
337,517,
336,516,
336,514,
337,513,
336,513,
335,512,
335,512,
335,513,
336,516,
336,517,
335,519,
334,524,
334,528,
335,536,
334,543,
333,551,
333,555,
333,550,
334,540,
334,527,
333,512,
333,500,
332,489,
333,481,
334,474,
334,469,
333,464,
333,462,
333,460,
333,457,
333,455,
331,455,
330,456,
331,456,
331,457,
329,456,
328,455,
326,455,
327,456,
327,456,
326,457,
324,459,
324,461,
323,464,
324,467,
324,470,
322,472,
321,472,
322,472,
322,471,
321,470,
320,468,
320,466,
320,467,
321,467,
321,468,
321,467,
320,469,
319,470,
321,472,
320,473,
319,474,
318,475,
317,476,
318,479,
317,480,
315,482,
315,484,
314,486,
315,490,
315,494,
314,495,
313,496,
313,500,
314,501,
313,504,
313,502,
313,504,
313,503,
313,505,
313,505,
311,503,
309,504,
308,505,
307,507,
308,509,
306,507,
304,508,
303,509,
304,512,
304,515,
303,515,
302,518,
302,521,
303,526,
302,530,
303,530,
301,533,
300,536,
301,538,
301,544,
300,544,
300,537,
299,530,
300,525,
302,520,
302,517,
301,512,
301,507,
302,501,
304,493,
304,486,
303,481,
303,476,
304,472,
306,468,
307,464,
308,463,
309,461,
310,456,
311,451,
312,446,
313,444,
313,442,
315,442,
317,444,
317,446,
318,451,
320,455,
322,459,
327,463,
330,469,
333,475,
335,484,
339,495,
344,507,
349,519,
352,532,
356,543,
360,553,
364,560,
369,567,
373,574,
375,581,
379,584,
383,583,
387,581,
390,579,
392,578,
393,577,
396,578,
399,581,
401,584,
401,589,
401,593,
403,596,
403,598,
403,600,
401,602,
401,602,
402,601,
401,598,
401,596,
400,594,
399,593,
399,589,
399,586,
397,585,
396,585,
395,583,
395,582,
394,583,
394,584,
392,586,
390,587,
389,588,
389,589,
388,594,
386,589,
384,574,
383,556,
383,535,
381,516,
378,498,
376,484,
376,472,
375,462,
373,453,
372,446,
369,441,
367,436,
366,432,
364,429,
360,429,
357,429,
355,431,
353,434,
352,437,
349,442,
347,446,
344,451,
344,456,
343,462,
342,469,
340,483,
340,496,
339,510,
340,519,
340,528,
338,537,
339,543,
340,550,
340,554,
340,561,
339,568,
339,572,
340,575,
340,577,
340,577,
340,576,
340,575,
342,573,
343,571,
344,570,
343,569,
343,570,
344,572,
344,572,
345,570,
344,566,
343,561,
343,554,
343,546,
342,538,
340,531,
340,526,
339,522,
339,516,
339,511,
338,508,
337,505,
337,502,
336,499,
335,497,
333,496,
331,495,
330,492,
329,489,
329,485,
328,481,
326,478,
325,474,
326,472,
325,471,
324,470,
323,471,
322,471,
322,471,
321,472,
319,473,
318,476,
318,477,
319,479,
320,479,
319,482,
318,486,
316,489,
316,501,
316,505,
316,504,
314,502,
314,498,
315,496,
315,494,
315,494,
315,491,
315,488,
315,483,
316,476,
316,469,
314,462,
314,456,
315,448,
316,441,
316,436,
315,432,
316,429,
317,429,
316,429,
316,434,
315,439,
314,446,
313,451,
315,455,
314,460,
312,465,
312,470,
311,473,
311,475,
311,478,
309,479,
308,480,
307,480,
308,480,
307,482,
306,484,
306,485,
307,487,
308,488,
307,492,
308,495,
307,498,
307,501,
307,505,
307,509,
306,512,
304,519,
304,526,
306,534,
305,539,
305,541,
303,539,
303,535,
304,530,
303,525,
303,518,
301,513,
302,506,
303,501,
302,495,
303,489,
301,484,
302,480,
302,475,
303,472,
303,467,
302,464,
302,461,
303,458,
305,456,
305,454,
305,453,
304,451,
305,451,
306,451,
305,454,
303,457,
303,461,
303,464,
304,467,
303,470,
302,472,
300,476,
301,480,
302,489,
302,494,
301,500,
300,508,
301,516,
302,518,
303,516,
302,511,
302,506,
303,501,
303,495,
303,491,
302,487,
301,486,
302,483,
303,480,
304,476,
302,473,
301,469,
302,467,
301,465,
301,472,
301,483,
300,488,
300,486,
303,483,
304,477,
304,472,
304,468,
305,464,
307,460,
310,456,
311,451,
313,448,
315,447,
319,446,
324,448,
327,449,
332,454,
336,458,
340,463,
345,468,
350,473,
352,480,
357,488,
362,497,
366,505,
370,513,
374,521,
376,530,
381,537,
384,543,
385,550,
387,556,
388,561,
390,566,
392,569,
393,570,
394,571,
394,573,
395,574,
396,573,
396,572,
395,570,
393,570,
394,569,
393,569,
393,568,
391,566,
390,566,
389,564,
388,563,
387,561,
385,559,
384,558,
383,557,
383,556,
382,555,
380,554,
379,553,
378,552,
377,550,
377,548,
375,545,
372,545,
370,545,
368,545,
367,544,
365,543,
362,543,
361,543,
362,541,
361,541,
360,539,
358,536,
356,535,
356,533,
354,532,
353,529,
350,527,
348,525,
346,524,
345,522,
344,521,
341,519,
339,518,
338,517,
338,517,
338,516,
338,514,
337,513,
337,512,
337,510,
337,509,
336,507,
335,506,
336,506,
336,506,
337,505,
336,504,
336,504,
336,504,
337,505,
338,505,
337,505,
337,506,
336,508,
336,509,
337,510,
336,511,
335,512,
335,513,
336,514,
336,515,
335,516,
335,517,
335,518,
336,519,
335,519,
335,517,
334,516,
335,515,
335,515,
335,514,
335,513,
333,511,
333,510,
333,509,
334,509,
332,508,
332,506,
331,507,
331,507,
331,508,
330,508,
328,509,
326,511,
326,513,
326,515,
325,517,
323,518,
322,520,
322,522,
322,523,
322,524,
322,523,
321,523,
322,523,
322,523,
322,523,
321,522,
320,520,
320,519,
320,517,
319,515,
318,513,
316,514,
317,514,
318,514,
317,516,
316,516,
315,516,
315,516,
315,518,
315,526,
314,536,
313,542,
313,537,
315,526,
315,513,
315,498,
313,487,
314,474,
314,463,
313,452,
313,442,
313,433,
313,424,
314,417,
315,411,
315,405,
315,401,
315,399,
316,397,
317,395,
317,395,
316,394,
316,396,
316,398,
318,400,
318,403,
317,408,
317,413,
318,416,
319,421,
318,426,
318,431,
318,437,
319,443,
320,449,
319,455,
318,460,
318,465,
319,470,
320,474,
321,478,
319,481,
319,484,
320,487,
321,488,
321,491,
320,495,
320,499,
320,501,
320,503,
319,504,
317,506,
316,509,
315,511,
316,512,
315,513,
314,515,
313,515,
313,515,
315,514,
315,512,
314,510,
314,504,
315,495,
316,486,
316,477,
316,469,
315,461,
315,453,
316,447,
316,441,
315,435,
314,431,
312,428,
313,426,
313,424,
312,421,
311,421,
310,421,
310,421,
310,422,
308,423,
306,425,
305,428,
305,431,
305,433,
304,436,
302,441,
302,445,
303,450,
303,452,
303,456,
302,461,
303,465,
304,470,
306,475,
308,480,
308,484,
309,489,
310,493,
311,496,
313,500,
313,504,
316,509,
319,514,
323,519,
326,522,
330,527,
333,532,
337,536,
342,539,
346,541,
350,543,
353,545,
358,548,
363,549,
367,551,
370,552,
373,554,
376,556,
380,556,
382,556,
384,556,
385,556,
385,556,
388,556,
389,556,
389,555,
389,554,
389,554,
390,553,
391,552,
389,551,
389,551,
388,552,
389,552,
389,550,
387,549,
385,547,
383,545,
382,543,
380,540,
378,537,
375,537,
372,536,
370,534,
368,532,
365,531,
362,530,
361,530,
359,529,
359,528,
357,527,
355,526,
353,525,
353,526,
353,525,
351,523,
350,523,
348,524,
349,524,
349,524,
349,524,
347,525,
347,527,
346,529,
345,528,
344,527,
342,526,
340,525,
339,524,
338,523,
337,521,
334,520,
332,519,
330,519,
329,520,
327,518,
325,518,
323,520,
322,520,
321,520,
319,519,
317,519,
316,519,
316,518,
316,518,
317,517,
317,516,
316,516,
316,516,
317,516,
318,516,
317,515,
317,516,
317,515,
318,516,
318,515,
317,514,
316,514,
316,514,
317,513,
318,513,
319,513,
319,514,
319,514,
321,514,
322,515,
323,514,
323,514,
323,513,
324,512,
326,511,
324,510,
324,509,
323,507,
324,507,
324,506,
324,505,
323,505,
322,505,
323,503,
324,502,
323,500,
323,499,
322,498,
323,497,
324,496,
322,496,
321,496,
320,496,
320,495,
321,495,
321,492,
319,493,
318,492,
317,492,
319,491,
318,490,
317,489,
315,489,
316,489,
317,489,
317,489,
317,488,
316,488,
316,489,
318,489,
317,489,
315,488,
314,489,
313,489,
314,489,
313,488,
312,488,
311,486,
312,486,
313,485,
313,484,
312,483,
310,482,
310,483,
311,483,
311,484,
311,485,
310,486,
310,488,
311,488,
311,489,
310,489,
309,489,
309,489,
310,488,
311,487,
311,486,
309,485,
310,484,
310,483,
311,483,
312,483,
311,484,
310,485,
312,487,
312,488,
312,488,
311,489,
311,490,
311,491,
312,491,
312,492,
311,493,
310,493,
311,493,
311,494,
311,494,
310,494,
310,495,
310,497,
310,498,
311,500,
310,500,
310,501,
309,501,
310,501,
310,500,
309,499,
309,498,
310,496,
311,494,
312,491,
311,490,
311,489,
312,488,
314,488,
315,487,
314,486,
315,486,
315,485,
316,484,
317,482,
317,482,
316,481,
317,482,
317,481,
318,480,
317,478,
317,477,
317,475,
318,474,
318,473,
317,473,
317,473,
315,472,
315,472,
315,472,
313,471,
312,471,
311,472,
311,473,
312,473,
312,473,
311,473,
310,473,
311,473,
311,472,
311,471,
310,470,
308,470,
308,470,
309,470,
309,469,
309,468,
309,470,
310,469,
312,470,
314,470,
315,470,
316,473,
319,476,
322,478,
324,481,
325,484,
327,487,
331,489,
335,490,
339,492,
341,494,
343,496,
347,499,
350,501,
354,504,
355,507,
358,510,
360,514,
364,516,
366,519,
368,520,
370,522,
372,524,
374,526,
375,527,
376,527,
377,528,
377,528,
379,528,
379,528,
379,528,
378,528,
378,529,
378,529,
377,529,
376,529,
374,529,
372,531,
372,531,
372,532,
371,532,
370,533,
370,534,
369,535,
368,535,
366,535,
364,535,
363,536,
361,536,
360,536,
359,535,
357,534,
356,535,
356,535,
355,534,
355,534,
353,534,
352,535,
351,535,
352,535,
351,534,
349,533,
347,532,
345,531,
346,530,
345,528,
344,526,
341,524,
341,521,
341,520,
340,518,
339,516,
338,514,
338,513,
338,512,
339,511,
338,510,
337,509,
337,508,
337,507,
337,507,
335,507,
333,507,
333,508,
333,508,
333,508,
333,508,
331,510,
331,511,
331,513,
332,512,
332,512,
333,512,
333,513,
334,513,
335,513,
336,512,
335,512,
336,512,
337,511,
338,511,
338,510,
338,509,
338,510,
338,508,
338,508,
337,507,
335,506,
334,506,
334,506,
333,505,
333,504,
330,504,
329,504,
330,505,
331,505,
330,504,
329,503,
328,503,
329,503,
330,503,
329,504,
327,504,
326,505,
326,507,
326,506,
326,506,
325,506,
323,507,
322,507,
322,508,
322,507,
321,507,
320,509,
319,511,
320,513,
319,512,
319,513,
318,514,
318,513,
318,513,
319,512,
319,512,
318,511,
317,512,
318,512,
319,510,
319,510,
318,510,
317,511,
318,511,
317,512,
316,515,
314,520,
313,525,
313,529,
313,536,
312,542,
311,543,
309,541,
311,540,
312,539,
310,538,
309,536,
307,533,
307,529,
308,525,
308,520,
307,515,
307,511,
308,508,
309,502,
310,497,
308,493,
309,490,
309,487,
310,486,
311,485,
310,484,
310,483,
311,482,
311,482,
312,480,
311,479,
311,477,
312,476,
313,475,
314,473,
313,471,
312,470,
313,469,
313,468,
314,468,
313,469,
314,470,
313,470,
315,470,
315,471,
315,473,
314,477,
314,482,
314,483,
313,484,
313,484,
310,486,
309,485,
309,483,
309,478,
308,474,
306,472,
306,471,
306,468,
306,467,
305,466,
304,466,
303,467,
304,469,
305,471,
307,474,
307,477,
308,481,
312,485,
314,491,
317,496,
320,500,
322,505,
327,509,
331,513,
335,517,
337,520,
340,523,
344,525,
349,529,
353,531,
356,533,
359,535,
362,537,
367,539,
369,539,
371,540,
373,541,
376,543,
379,544,
380,544,
380,545,
379,545,
380,547,
381,548,
380,548,
380,548,
379,549,
379,550,
379,550,
380,550,
378,551,
378,551,
377,551,
377,551,
377,551,
376,551,
374,550,
373,550,
373,550,
372,548,
372,548,
370,547,
368,546,
368,546,
367,546,
367,546,
363,545,
363,544,
362,542,
362,541,
362,539,
360,538,
359,537,
359,537,
359,536,
358,535,
356,534,
354,534,
353,534,
352,533,
350,532,
347,531,
345,531,
345,530,
344,529,
342,527,
340,526,
338,525,
337,524,
336,523,
335,523,
332,521,
331,521,
330,520,
329,519,
329,517,
328,516,
327,515,
328,514,
328,515,
329,514,
328,514,
327,514,
328,514,
329,513,
330,512,
329,511,
328,510,
328,510,
328,509,
329,508,
328,506,
328,506,
328,506,
328,505,
328,505,
327,505,
328,504,
328,504,
329,504,
332,503,
332,504,
330,505,
330,508,
332,510,
332,511,
331,511,
330,513,
330,515,
330,515,
332,516,
331,516,
329,516,
327,517,
328,519,
328,520,
327,521,
325,522,
324,522,
324,521,
322,520,
322,519,
320,517,
319,517,
319,515,
319,513,
318,511,
317,509,
315,509,
315,509,
316,508,
316,509,
315,508,
314,506,
315,503,
316,502,
315,500,
316,499,
315,499,
315,498,
316,497,
316,496,
315,495,
314,496,
313,496,
314,495,
315,494,
314,494,
313,495,
313,495,
315,495,
315,496,
315,495,
314,495,
314,496,
313,495,
313,495,
312,494,
312,495,
311,495,
311,494,
312,493,
311,492,
310,492,
310,493,
310,494,
310,493,
309,493,
308,493,
308,493,
308,493,
309,493,
309,492,
308,492,
307,492,
308,492,
309,491,
310,490,
310,489,
309,489,
310,489,
310,488,
310,488,
308,488,
307,488,
308,488,
309,487,
308,487,
307,487,
306,487,
305,487,
306,486,
306,486,
305,486,
303,488,
303,489,
303,491,
303,493,
301,495,
301,498,
301,500,
302,502,
302,503,
302,503,
301,506,
302,508,
303,509,
304,510,
304,510,
303,511,
305,511,
305,511,
305,510,
305,509,
305,508,
306,508,
308,506,
309,504,
309,503,
309,502,
310,502,
310,499,
310,497,
309,496,
308,495,
307,494,
308,495,
309,495,
309,495,
308,494,
307,495,
307,495,
307,494,
306,493,
306,494,
304,494,
304,493,
305,493,
304,493,
302,492,
302,493,
302,493,
302,492,
303,491,
303,492,
303,494,
305,498,
308,500,
309,501,
311,504,
312,509,
316,513,
321,517,
325,521,
327,524,
331,529,
337,534,
342,539,
346,543,
350,547,
354,550,
358,554,
363,569,
365,590,
367,603,
370,601,
373,587,
378,569,
380,551,
382,534,
382,520,
385,507,
388,495,
390,485,
390,477,
391,470,
391,466,
393,463,
393,459,
393,457,
392,458,
391,459,
391,461,
391,464,
390,467,
389,472,
389,479,
390,484,
389,489,
389,494,
387,500,
387,507,
386,514,
386,520,
385,526,
384,534,
383,541,
382,547,
382,551,
381,556,
379,561,
377,569,
376,586,
376,595,
375,598,
374,603,
373,609,
372,613,
372,614,
371,611,
368,607,
367,601,
366,597,
365,590,
363,581,
361,572,
359,565,
357,559,
356,558,
356,559,
353,561,
352,565,
351,572,
351,576,
350,578,
348,579,
346,580,
346,579,
346,575,
345,570,
344,565,
342,562,
341,557,
343,552,
344,545,
343,538,
342,535,
342,532,
342,528,
343,522,
343,515,
342,511,
342,510,
344,506,
344,502,
344,499,
342,498,
342,499,
342,498,
343,495,
342,493,
341,493,
341,495,
341,495,
342,495,
342,496,
341,497,
341,501,
342,503,
343,504,
343,506,
342,508,
341,514,
341,522,
340,526,
339,528,
337,529,
336,529,
337,528,
336,525,
334,522,
332,520,
331,519,
332,518,
332,517,
332,515,
330,514,
328,516,
328,517,
328,516,
328,514,
327,513,
325,514,
325,514,
325,513,
325,510,
324,509,
322,510,
323,510,
324,508,
324,506,
323,505,
321,506,
322,509,
322,508,
322,506,
320,505,
318,505,
317,506,
316,505,
317,503,
316,502,
313,502,
312,503,
312,502,
312,499,
312,497,
312,497,
311,497,
312,496,
313,494,
313,492,
312,492,
312,493,
313,493,
314,490,
314,488,
312,489,
312,491,
313,491,
314,491,
314,491,
312,492,
311,494,
312,495,
313,495,
313,494,
313,493,
313,496,
313,496,
314,495,
316,494,
316,494,
317,497,
317,499,
318,500,
319,500,
318,500,
317,503,
317,505,
318,505,
317,504,
315,504,
315,505,
314,506,
313,506,
313,505,
311,505,
310,507,
310,509,
310,508,
311,505,
311,504,
310,504,
310,505,
311,504,
313,501,
312,498,
312,499,
313,499,
313,498,
314,496,
313,495,
313,496,
312,499,
314,499,
314,499,
314,499,
314,500,
314,503,
315,504,
316,504,
314,504,
313,505,
312,506,
314,506,
314,503,
314,500,
313,498,
313,497,
313,496,
312,493,
313,490,
311,489,
310,489,
310,489,
311,488,
311,486,
311,486,
311,489,
310,489,
310,488,
309,487,
308,487,
307,489,
308,490,
309,489,
310,489,
309,490,
309,493,
311,497,
314,499,
317,500,
319,503,
321,508,
325,513,
329,516,
333,518,
336,522,
339,528,
343,534,
347,538,
352,541,
356,543,
360,547,
364,553,
369,556,
373,558,
376,560,
379,563,
383,567,
386,570,
390,572,
393,573,
394,576,
396,579,
397,581,
398,580,
400,578,
400,580,
400,583,
400,585,
401,585,
401,585,
399,587,
399,594,
399,593,
399,583,
398,571,
396,560,
395,551,
395,541,
394,528,
393,517,
391,509,
389,504,
388,499,
388,492,
386,487,
384,484,
382,484,
382,484,
381,484,
380,483,
379,484,
377,488,
376,491,
375,492,
373,492,
371,494,
369,499,
368,503,
367,505,
367,506,
365,509,
363,514,
362,520,
362,523,
361,524,
359,528,
358,533,
356,539,
357,540,
355,540,
354,540,
352,542,
351,544,
351,544,
351,542,
350,541,
349,542,
348,544,
348,544,
349,542,
348,540,
347,541,
347,543,
347,543,
349,541,
348,538,
347,538,
347,541,
348,541,
348,537,
349,534,
348,535,
347,538,
348,539,
349,536,
348,532,
347,530,
347,533,
348,533,
348,529,
348,526,
347,525,
346,527,
346,530,
347,527,
347,524,
346,523,
346,527,
346,528,
347,526,
346,523,
344,522,
342,524,
342,524,
343,522,
342,519,
340,519,
339,521,
339,524,
340,523,
339,520,
338,520,
337,522,
336,524,
337,523,
337,520,
336,518,
333,519,
333,521,
333,518,
333,514,
331,510,
329,511,
328,514,
329,512,
329,508,
327,505,
326,506,
327,508,
328,509,
328,505,
326,503,
323,503,
321,506,
321,506,
322,504,
320,501,
318,503,
317,506,
316,506,
316,502,
315,499,
314,499,
314,502,
314,504,
315,500,
315,498,
313,497,
313,500,
314,501,
314,499,
314,495,
313,495,
312,498,
311,500,
313,498,
312,495,
311,494,
311,496,
311,497,
311,496,
312,493,
311,493,
311,495,
312,496,
313,495,
314,492,
314,490,
312,492,
313,495,
312,495,
312,493,
312,492,
310,494,
310,497,
310,497,
311,494,
310,493,
309,496,
309,499,
309,499,
311,496,
310,495,
310,496,
310,499,
312,499,
313,496,
313,494,
311,496,
312,499,
312,500,
313,496,
312,494,
311,496,
311,501,
312,502,
312,500,
311,499,
309,500,
310,504,
310,505,
310,503,
309,501,
308,502,
309,508,
309,513,
309,514,
309,512,
308,514,
309,518,
309,520,
310,518,
310,516,
309,514,
308,515,
309,515,
309,512,
309,506,
308,503,
306,503,
307,503,
308,499,
307,495,
306,493,
306,496,
307,501,
307,501,
309,499,
307,500,
306,505,
306,512,
309,511,
311,503,
312,501,
314,504,
316,511,
320,513,
323,512,
326,513,
328,517,
333,523,
337,524,
342,525,
346,527,
349,533,
353,541,
358,545,
362,545,
366,547,
368,553,
371,560,
375,565,
380,568,
382,574,
384,584,
386,600,
389,608,
391,603,
392,594,
391,586,
391,581,
392,575,
393,565,
394,555,
392,549,
391,549,
391,547,
392,544,
391,540,
390,539,
389,544,
389,546,
389,545,
388,542,
386,541,
384,544,
384,546,
384,544,
385,541,
383,539,
382,541,
380,543,
380,542,
379,539,
377,538,
375,541,
375,544,
375,543,
374,541,
372,539,
370,541,
368,543,
368,542,
368,538,
366,535,
363,536,
362,538,
361,536,
360,531,
357,526,
353,525,
352,524,
351,521,
350,516,
348,513,
346,513,
345,516,
345,516,
344,513,
343,512,
340,513,
339,518,
339,519,
339,519,
338,520,
336,522,
334,526,
335,529,
336,528,
337,527,
336,529,
335,533,
335,534,
336,532,
336,528,
335,527,
336,529,
337,528,
337,525,
338,521,
337,520,
338,523,
339,525,
340,521,
341,517,
340,515,
339,517,
339,518,
340,516,
341,513,
340,512,
339,515,
340,517,
341,515,
342,512,
341,512,
340,515,
340,518,
340,517,
339,514,
338,512,
335,514,
335,516,
335,516,
335,513,
333,512,
331,514,
331,515,
331,512,
332,508,
332,504,
330,504,
330,506,
331,506,
331,503,
330,503,
329,506,
328,510,
328,512,
327,511,
326,512,
325,513,
324,517,
324,517,
325,516,
323,515,
322,517,
321,520,
322,526,
322,532,
321,539,
320,548,
318,558,
318,567,
318,574,
317,581,
315,587,
314,589,
315,579,
316,564,
316,549,
315,534,
315,522,
317,510,
317,499,
317,489,
316,481,
316,475,
314,468,
314,460,
315,454,
313,451,
313,450,
314,448,
314,446,
314,444,
314,444,
313,445,
313,448,
314,449,
314,451,
314,453,
313,456,
313,460,
313,464,
313,468,
313,472,
312,479,
312,486,
313,491,
314,494,
312,499,
312,504,
311,510,
312,514,
313,518,
313,522,
311,526,
311,531,
312,533,
312,535,
311,538,
310,539,
309,540,
310,540,
311,538,
310,535,
308,533,
308,531,
310,530,
311,530,
312,531,
310,534,
311,539,
312,544,
312,547,
313,544,
312,541,
311,535,
311,529,
312,521,
310,516,
309,511,
309,500,
310,486,
312,470,
313,456,
313,442,
315,433,
316,425,
319,417,
321,412,
323,409,
325,409,
329,409,
332,411,
336,413,
340,418,
344,424,
347,430,
352,437,
356,444,
360,452,
363,462,
368,471,
372,482,
377,491,
379,500,
381,510,
384,519,
387,527,
390,534,
392,541,
394,549,
396,556,
398,561,
400,565,
400,569,
399,572,
399,576,
399,579,
400,580,
399,582,
396,583,
396,584,
395,586,
394,587,
392,587,
390,586,
389,585,
388,583,
387,581,
386,579,
383,577,
382,575,
382,573,
381,571,
380,569,
378,567,
377,566,
376,563,
375,561,
373,558,
371,555,
370,553,
368,551,
368,549,
367,547,
366,544,
365,543,
364,542,
364,541,
363,539,
361,537,
359,536,
358,535,
357,533,
356,532,
353,532,
351,532,
350,532,
349,531,
348,530,
347,527,
345,526,
343,525,
344,524,
344,524,
342,524,
341,524,
341,526,
342,527,
344,527,
343,527,
343,527,
343,527,
345,527,
346,527,
346,526,
345,525,
345,525,
345,526,
347,526,
347,526,
347,526,
347,526,
347,526,
347,524,
347,523,
346,523,
346,522,
346,522,
346,521,
346,520,
344,521,
343,521,
343,520,
343,520,
343,520,
341,520,
340,522,
340,523,
340,523,
339,524,
337,523,
336,525,
336,525,
336,526,
337,527,
336,528,
335,529,
334,528,
334,528,
334,528,
332,528,
330,529,
331,530,
330,529,
330,528,
328,527,
327,526,
327,526,
327,526,
327,526,
325,527,
324,530,
324,531,
324,532,
325,531,
324,530,
323,529,
323,528,
322,527,
322,524,
321,521,
320,520,
320,518,
320,515,
320,512,
320,509,
318,506,
317,505,
317,506,
317,507,
316,507,
315,508,
314,509,
315,509,
317,508,
316,507,
315,509,
314,507,
314,498,
315,488,
314,476,
311,467,
312,458,
312,452,
312,445,
313,441,
311,437,
311,435,
312,433,
312,432,
311,432,
310,433,
310,434,
310,436,
311,438,
311,440,
311,444,
311,449,
312,454,
312,460,
313,466,
313,471,
313,475,
314,478,
315,480,
315,482,
314,483,
313,485,
313,487,
314,489,
314,490,
312,490,
311,491,
312,493,
313,494,
313,495,
312,496,
311,498,
309,499,
309,498,
309,498,
308,497,
307,496,
306,496,
307,495,
308,494,
307,493,
306,492,
306,491,
308,491,
308,492,
308,492,
307,491,
307,491,
308,491,
309,490,
309,489,
308,488,
308,488,
309,487,
309,487,
309,486,
308,485,
309,485,
309,485,
310,485,
310,485,
310,485,
309,485,
310,486,
311,486,
311,486,
312,486,
312,487,
315,488,
318,489,
320,490,
322,491,
324,493,
327,496,
331,498,
335,502,
339,505,
341,509,
346,513,
351,517,
356,521,
359,525,
362,530,
366,535,
370,539,
375,542,
378,545,
379,550,
382,554,
386,557,
389,558,
391,561,
391,565,
393,568,
396,570,
398,571,
398,572,
397,574,
398,576,
398,578,
398,580,
397,581,
396,582,
396,583,
396,584,
396,584,
396,584,
394,584,
393,583,
393,582,
393,581,
393,579,
392,577,
391,576,
392,575,
392,573,
391,571,
390,570,
388,570,
388,569,
388,569,
387,567,
386,566,
384,565,
383,564,
382,562,
381,560,
379,558,
376,557,
376,555,
374,554,
371,551,
368,551,
366,550,
365,550,
364,549,
363,548,
361,547,
359,545,
358,544,
357,542,
356,541,
354,537,
350,536,
350,535,
349,534,
348,534,
347,534,
346,534,
347,535,
347,534,
347,533,
346,532,
346,532,
346,532,
347,531,
347,530,
347,529,
347,527,
346,526,
347,525,
348,522,
349,521,
347,520,
347,518,
348,518,
348,516,
347,516,
346,516,
345,517,
346,515,
346,516,
346,515,
346,515,
344,515,
346,516,
346,517,
345,519,
344,520,
343,522,
344,523,
343,523,
342,523,
341,523,
340,524,
340,523,
340,523,
339,522,
338,520,
337,520,
336,518,
336,517,
336,515,
334,513,
333,514,
332,513,
333,511,
332,510,
330,508,
329,507,
328,507,
328,505,
328,505,
326,505,
325,506,
325,507,
325,508,
325,509,
323,510,
320,511,
319,512,
319,512,
319,512,
317,513,
315,513,
315,513,
315,514,
315,514,
314,513,
313,512,
312,512,
312,512,
313,511,
313,510,
312,509,
311,508,
312,507,
312,505,
311,504,
310,502,
309,501,
310,499,
311,498,
311,496,
311,494,
311,492,
312,491,
314,488,
314,487,
313,485,
313,485,
314,484,
315,483,
315,483,
314,482,
314,482,
315,482,
315,482,
315,482,
314,481,
314,481,
313,482,
314,482,
313,481,
311,481,
311,481,
310,482,
311,481,
310,482,
309,481,
308,482,
308,483,
308,482,
308,481,
306,482,
304,483,
304,484,
305,484,
305,484,
305,484,
304,486,
304,489,
305,493,
305,495,
305,497,
304,501,
304,504,
305,508,
306,510,
307,511,
307,513,
308,514,
309,515,
310,515,
310,515,
310,515,
309,514,
311,514,
312,513,
311,512,
310,513,
310,514,
311,515,
311,514,
311,511,
309,508,
308,504,
307,503,
308,500,
307,497,
307,493,
306,490,
306,486,
307,483,
307,481,
304,479,
304,477,
305,477,
304,477,
305,476,
303,476,
303,474,
303,473,
304,473,
305,473,
304,473,
304,473,
305,474,
308,473,
310,475,
311,478,
313,483,
315,487,
319,496,
322,507,
324,517,
327,524,
331,530,
336,535,
341,537,
345,540,
348,538,
352,534,
358,529,
362,523,
366,517,
369,511,
373,507,
377,504,
381,502,
383,500,
384,499,
387,499,
390,500,
392,500,
393,499,
393,498,
393,498,
395,499,
396,500,
396,501,
395,503,
395,507,
395,511,
395,515,
393,520,
392,526,
391,532,
391,538,
391,542,
390,545,
388,549,
387,555,
387,558,
388,561,
387,563,
386,564,
384,568,
383,569,
383,570,
383,570,
381,569,
380,569,
379,568,
379,566,
377,564,
375,562,
373,561,
372,559,
372,556,
371,553,
369,551,
367,549,
367,547,
366,545,
365,543,
364,541,
362,540,
360,538,
359,536,
358,534,
356,532,
352,530,
351,529,
352,528,
351,527,
350,525,
349,524,
348,524,
348,524,
347,524,
346,524,
344,524,
343,524,
344,524,
344,524,
343,523,
343,523,
341,525,
342,526,
341,527,
340,528,
339,528,
339,529,
339,529,
339,529,
338,529,
336,530,
336,530,
337,531,
339,530,
339,529,
339,528,
338,527,
339,526,
340,524,
340,522,
338,520,
337,520,
337,519,
338,519,
337,519,
337,519,
336,519,
336,518,
337,516,
337,515,
337,514,
336,514,
336,514,
338,514,
339,513,
337,511,
335,511,
335,509,
335,507,
335,506,
333,505,
333,504,
332,503,
332,502,
331,500,
331,499,
329,500,
328,503,
327,510,
326,518,
325,526,
324,535,
322,542,
322,548,
322,553,
321,557,
319,559,
318,563,
319,565,
319,567,
317,567,
317,567,
316,568,
316,570,
317,573,
317,574,
317,568,
316,557,
317,544,
317,532,
316,520,
316,509,
316,500,
316,492,
316,485,
316,478,
314,473,
313,469,
314,465,
315,462,
315,457,
313,454,
313,452,
314,450,
314,446,
313,444,
312,442,
312,442,
312,442,
312,444,
312,445,
312,446,
311,448,
311,450,
312,452,
312,455,
311,457,
311,459,
311,462,
313,466,
312,469,
312,471,
311,475,
311,477,
312,479,
312,480,
310,481,
309,481,
309,483,
309,483,
311,483,
310,483,
310,483,
310,484,
311,486,
312,493,
311,498,
310,502,
309,503,
309,505,
309,507,
308,509,
307,510,
306,512,
306,516,
306,519,
305,523,
305,529,
304,535,
304,538,
305,537,
305,533,
305,528,
304,522,
304,514,
304,505,
304,496,
304,488,
304,481,
304,475,
304,470,
304,467,
303,465,
302,463,
304,461,
303,458,
304,454,
303,452,
302,450,
302,448,
303,447,
304,445,
304,444,
304,444,
304,445,
306,445,
306,446,
307,448,
307,451,
308,456,
311,461,
313,466,
314,472,
315,479,
317,485,
321,491,
324,497,
327,503,
329,511,
333,521,
337,531,
342,540,
345,550,
348,558,
351,565,
356,570,
360,576,
363,581,
366,587,
371,591,
375,594,
380,596,
383,599,
386,604,
388,613,
391,620,
394,622,
395,620,
396,616,
397,612,
399,605,
401,596,
401,587,
400,578,
400,569,
400,561,
399,553,
398,544,
397,536,
395,529,
395,522,
395,515,
393,508,
391,503,
389,498,
389,495,
390,492,
389,490,
387,489,
385,488,
385,490,
385,493,
385,495,
382,498,
380,502,
379,506,
378,510,
377,513,
375,515,
373,517,
371,519,
371,520,
369,521,
368,522,
366,524,
365,525,
365,526,
364,527,
362,528,
360,529,
359,530,
358,530,
357,530,
355,531,
352,531,
350,532,
350,531,
349,531,
347,531,
345,531,
342,531,
341,531,
340,531,
339,532,
338,533,
337,533,
338,534,
339,533,
339,532,
338,531,
338,531,
339,530,
339,529,
340,529,
339,529,
339,530,
341,530,
341,528,
342,527,
342,526,
342,527,
342,526,
343,524,
343,523,
342,521,
340,521,
338,522,
338,522,
338,522,
337,523,
334,524,
335,525,
334,525,
333,525,
331,524,
329,525,
328,525,
328,525,
328,525,
326,525,
324,526,
322,526,
322,526,
322,525,
322,524,
320,523,
320,522,
321,522,
321,520,
321,519,
321,518,
321,517,
322,516,
322,516,
322,515,
321,513,
322,513,
322,512,
323,512,
322,513,
322,515,
322,518,
322,520,
323,522,
323,524,
323,525,
322,528,
322,529,
322,530,
321,530,
320,529,
320,528,
320,527,
320,523,
319,520,
318,519,
317,518,
318,517,
319,515,
319,513,
318,511,
317,510,
318,509,
318,507,
318,506,
318,505,
317,503,
317,502,
317,500,
317,500,
316,499,
315,502,
315,503,
316,504,
316,507,
314,510,
314,513,
314,514,
315,516,
315,516,
314,515,
313,514,
313,513,
313,512,
314,511,
313,508,
312,505,
312,501,
312,495,
312,490,
311,486,
310,484,
310,482,
311,479,
312,477,
313,474,
313,473,
312,471,
313,470,
314,469,
314,468,
314,470,
313,473,
315,477,
314,480,
314,482,
313,485,
312,488,
313,491,
314,493,
314,493,
313,492,
312,491,
312,490,
312,490,
312,491,
311,491,
310,493,
309,495,
310,497,
309,498,
308,500,
306,499,
305,495,
305,491,
304,485,
303,479,
301,474,
302,468,
303,463,
304,458,
304,454,
304,452,
304,452,
307,451,
310,451,
311,452,
313,454,
316,457,
319,460,
323,463,
327,467,
330,473,
334,481,
339,488,
345,494,
348,501,
352,509,
358,516,
364,523,
369,530,
373,537,
376,544,
379,550,
383,557,
385,562,
388,567,
389,572,
392,578,
394,581,
397,583,
398,586,
397,588,
398,590,
398,592,
399,592,
398,591,
396,591,
396,591,
396,591,
396,590,
396,589,
394,589,
394,588,
394,587,
394,586,
393,584,
391,582,
389,581,
388,580,
388,578,
387,576,
384,574,
382,573,
382,570,
382,569,
381,567,
379,565,
378,563,
377,563,
377,562,
376,561,
374,559,
372,557,
370,552,
370,547,
368,541,
365,537,
363,533,
362,530,
361,527,
360,525,
358,522,
355,520,
354,520,
353,520,
352,521,
351,521,
349,522,
348,522,
348,521,
348,519,
347,518,
344,518,
344,518,
344,518,
344,517,
344,516,
342,517,
342,518,
344,518,
345,520,
345,521,
345,524,
345,527,
346,531,
347,533,
348,535,
348,536,
348,539,
349,540,
350,541,
351,543,
350,544,
349,544,
350,544,
349,543,
349,544,
347,544,
346,547,
346,558,
346,565,
346,564,
345,557,
344,548,
343,539,
343,530,
342,520,
340,512,
337,508,
336,503,
337,498,
337,493,
335,489,
334,486,
334,482,
334,481,
334,478,
333,477,
332,478,
332,478,
333,479,
332,479,
331,480,
330,481,
329,483,
330,483,
330,484,
329,485,
329,487,
329,490,
329,491,
330,492,
328,492,
326,494,
325,499,
325,502,
326,505,
324,508,
322,511,
322,517,
321,523,
322,527,
322,529,
321,528,
320,525,
321,522,
321,517,
320,513,
319,510,
317,509,
318,509,
318,508,
317,507,
316,505,
315,505,
316,503,
317,500,
316,497,
315,495,
314,494,
315,492,
316,492,
316,492,
314,492,
314,492,
313,492,
314,491,
315,490,
313,491,
313,491,
313,493,
314,493,
315,494,
315,493,
314,494,
315,495,
316,495,
317,495,
315,496,
314,497,
313,497,
313,496,
313,495,
312,493,
313,493,
313,491,
314,490,
315,487,
315,486,
316,485,
315,485,
317,484,
317,483,
316,482,
315,482,
315,482,
315,482,
315,482,
315,482,
313,483,
312,483,
314,482,
315,480,
314,479,
314,478,
313,479,
314,480,
314,479,
314,480,
312,480,
311,481,
310,482,
310,482,
310,482,
308,483,
307,484,
306,486,
307,488,
307,490,
306,491,
306,494,
308,495,
310,497,
312,498,
314,500,
316,503,
319,507,
323,510,
326,513,
330,517,
333,521,
338,527,
343,532,
348,537,
352,542,
357,547,
362,552,
367,554,
371,557,
374,560,
377,565,
381,571,
385,577,
389,583,
393,590,
396,597,
398,603,
402,608,
404,610,
405,613,
406,617,
407,620,
408,622,
410,622,
410,624,
408,629,
408,634,
408,638,
409,639,
408,636,
407,632,
406,627,
406,619,
406,609,
405,598,
403,586,
401,575,
402,564,
402,553,
401,544,
401,535,
400,528,
399,522,
399,517,
398,513,
396,508,
396,505,
396,502,
395,501,
395,499,
393,499,
391,500,
390,501,
389,503,
388,504,
386,505,
383,507,
381,509,
380,511,
378,512,
376,514,
373,517,
372,520,
370,524,
368,527,
367,531,
364,534,
363,536,
362,537,
362,537,
359,538,
357,540,
358,541,
357,542,
357,543,
356,544,
355,547,
354,550,
355,551,
356,552,
356,552,
354,553,
354,554,
356,555,
355,555,
355,555,
354,556,
353,557,
354,559,
355,559,
354,559,
352,559,
351,559,
352,559,
352,558,
352,559,
350,561,
350,566,
350,572,
351,574,
350,574,
350,572,
348,573,
349,571,
349,568,
348,563,
348,559,
346,556,
346,553,
347,550,
346,546,
345,544,
344,542,
345,539,
345,535,
344,530,
343,526,
342,522,
342,519,
341,514,
341,509,
340,505,
338,503,
338,501,
337,498,
336,497,
334,497,
333,498,
333,498,
333,499,
333,500,
332,501,
331,503,
331,505,
330,507,
330,508,
329,510,
327,511,
327,512,
328,512,
328,510,
328,509,
326,509,
326,508,
326,508,
326,506,
325,504,
323,503,
323,502,
323,500,
324,497,
323,495,
323,493,
321,492,
322,491,
322,490,
321,490,
319,489,
318,490,
318,490,
318,488,
318,487,
317,486,
317,486,
317,487,
318,487,
318,487,
317,488,
315,491,
315,492,
316,491,
316,490,
315,488,
315,489,
316,488,
316,487,
316,486,
315,485,
314,487,
314,486,
314,486,
314,487,
314,487,
314,492,
314,499,
315,504,
315,508,
314,512,
313,517,
314,523,
315,533,
315,537,
314,536,
314,537,
315,539,
316,532,
316,522,
316,511,
316,503,
316,495,
316,486,
318,477,
317,469,
317,461,
317,454,
317,447,
318,438,
318,431,
317,427,
316,425,
317,423,
317,418,
316,415,
315,414,
314,414,
314,414,
315,412,
314,412,
313,414,
313,418,
313,420,
314,422,
313,424,
312,429,
311,436,
311,441,
312,445,
312,449,
311,454,
311,461,
311,466,
312,469,
312,471,
311,472,
310,476,
311,478,
312,480,
312,480,
311,481,
310,484,
311,486,
312,486,
311,486,
311,488,
309,491,
310,493,
311,493,
312,492,
311,492,
309,493,
309,495,
308,494,
309,491,
308,488,
307,487,
307,486,
307,484,
307,482,
306,480,
305,480,
305,481,
306,481,
307,478,
308,478,
308,479,
309,481,
311,481,
313,479,
314,480,
316,483,
319,487,
323,491,
327,493,
330,496,
332,503,
335,511,
339,516,
345,521,
349,525,
352,532,
356,540,
362,546,
367,549,
371,553,
374,558,
378,565,
383,571,
388,574,
392,577,
394,582,
397,588,
400,593,
403,595,
405,596,
405,598,
405,600,
406,603,
408,605,
410,605,
408,605,
407,608,
408,610,
410,611,
410,610,
410,611,
409,613,
408,615,
408,614,
407,612,
405,610,
403,611,
403,611,
403,610,
403,607,
402,605,
400,605,
399,605,
400,603,
400,599,
398,596,
396,596,
396,595,
396,592,
397,586,
396,582,
394,578,
393,577,
393,575,
392,572,
390,569,
388,570,
386,573,
384,571,
384,566,
382,561,
379,557,
376,556,
375,555,
375,550,
373,544,
371,541,
369,540,
367,539,
367,534,
366,530,
363,527,
362,528,
361,526,
360,521,
359,517,
359,514,
358,517,
359,520,
360,520,
360,521,
359,524,
359,531,
359,538,
360,543,
360,549,
358,560,
357,572,
357,575,
357,574,
358,570,
356,566,
354,564,
354,563,
355,560,
356,555,
356,551,
355,551,
355,551,
356,548,
355,544,
355,541,
353,540,
353,542,
352,540,
352,536,
350,532,
347,531,
346,529,
346,525,
347,517,
345,512,
343,510,
343,509,
342,507,
341,501,
340,498,
338,496,
337,495,
337,491,
336,485,
336,479,
335,475,
335,473,
336,471,
336,468,
335,465,
334,466,
333,470,
334,473,
334,475,
334,477,
333,480,
331,487,
332,492,
333,495,
332,496,
331,500,
330,506,
329,511,
330,513,
328,513,
327,515,
325,520,
325,523,
325,524,
325,521,
323,521,
323,523,
322,523,
322,523,
322,521,
321,520,
320,522,
319,523,
320,520,
320,516,
318,513,
317,511,
317,511,
318,507,
317,502,
315,498,
314,497,
314,498,
314,495,
314,492,
314,489,
313,490,
313,492,
314,492,
315,489,
315,487,
313,487,
312,490,
314,490,
314,487,
313,485,
312,486,
312,488,
313,488,
313,486,
312,484,
311,483,
309,484,
310,483,
310,477,
310,473,
310,470,
310,471,
311,471,
312,468,
311,465,
311,462,
311,464,
311,463,
312,460,
312,455,
311,454,
311,456,
312,458,
313,458,
312,457,
312,458,
311,462,
312,465,
313,467,
312,468,
311,470,
310,474,
310,476,
310,477,
310,476,
308,475,
307,479,
307,482,
308,482,
308,481,
306,482,
305,484,
304,486,
305,486,
304,483,
303,482,
301,484,
300,487,
301,489,
301,486,
302,486,
300,487,
301,491,
302,493,
303,493,
303,493,
303,495,
302,499,
303,499,
303,497,
304,493,
302,492,
302,494,
303,493,
304,490,
304,487,
303,488,
303,490,
303,492,
304,491,
304,488,
302,487,
302,491,
302,493,
303,489,
303,484,
303,482,
302,482,
303,480,
304,474,
304,467,
303,462,
302,461,
303,460,
304,456,
305,450,
306,447,
306,448,
309,449,
311,449,
312,447,
313,448,
316,453,
319,459,
323,462,
327,464,
330,468,
333,476,
337,486,
342,493,
347,497,
351,503,
354,512,
359,523,
363,530,
368,535,
372,539,
374,546,
378,554,
382,558,
385,560,
388,561,
390,564,
391,570,
393,574,
396,575,
397,575,
397,579,
397,584,
398,587,
399,586,
399,585,
398,587,
396,589,
396,590,
397,586,
396,582,
394,580,
392,582,
391,582,
391,578,
390,574,
389,573,
387,576,
387,575,
388,573,
387,569,
386,568,
384,570,
384,573,
385,571,
384,567,
383,566,
380,569,
380,570,
380,568,
379,562,
378,560,
376,561,
375,563,
376,560,
375,555,
372,552,
370,553,
370,555,
370,552,
369,547,
366,544,
364,544,
362,546,
361,543,
360,537,
358,534,
355,534,
354,536,
353,534,
353,529,
351,526,
349,528,
349,531,
349,532,
348,529,
348,529,
346,531,
344,537,
346,538,
346,536,
346,534,
345,536,
344,542,
344,544,
345,541,
343,537,
341,539,
341,545,
341,548,
342,546,
342,544,
340,545,
339,550,
340,552,
339,549,
339,544,
338,541,
339,542,
340,544,
341,541,
341,536,
340,536,
339,539,
340,541,
340,539,
340,535,
338,533,
338,537,
338,541,
338,538,
338,533,
337,531,
336,535,
335,536,
335,533,
335,529,
334,526,
334,527,
334,530,
334,529,
334,524,
332,520,
331,520,
330,522,
330,521,
330,516,
329,514,
328,518,
328,523,
327,526,
327,529,
326,536,
324,534,
325,528,
325,515,
324,498,
323,483,
321,473,
321,466,
320,457,
320,446,
319,438,
317,433,
317,433,
318,430,
317,425,
317,420,
315,419,
314,422,
313,423,
313,422,
311,420,
310,423,
308,428,
309,432,
309,433,
309,433,
308,437,
307,446,
307,451,
308,454,
309,455,
308,459,
308,466,
309,471,
310,473,
312,474,
311,476,
311,482,
310,487,
312,487,
313,486,
312,488,
312,493,
312,496,
313,496,
313,495,
313,495,
312,499,
312,503,
313,502,
314,499,
314,497,
313,498,
313,499,
314,498,
315,494,
314,490,
312,490,
312,492,
312,490,
313,485,
313,480,
311,480,
311,480,
313,479,
313,474,
314,470,
312,470,
312,471,
313,471,
314,468,
313,466,
313,468,
314,474,
315,476,
317,476,
318,476,
317,479,
317,486,
319,491,
321,492,
324,495,
325,500,
327,508,
331,515,
335,518,
339,518,
342,522,
346,529,
349,534,
354,537,
357,538,
359,540,
362,547,
366,551,
370,553,
374,554,
376,555,
378,561,
382,564,
385,565,
388,565,
388,565,
389,569,
390,573,
391,573,
393,570,
393,570,
393,572,
393,574,
393,573,
393,570,
392,569,
391,570,
391,573,
390,572,
389,569,
387,568,
386,569,
386,571,
386,571,
385,568,
383,565,
382,565,
380,566,
380,564,
379,560,
378,557,
375,556,
374,557,
372,556,
371,553,
369,551,
367,551,
364,552,
363,552,
361,548,
359,546,
357,546,
355,547,
353,547,
352,543,
350,539,
348,537,
346,537,
344,537,
344,533,
342,532,
341,533,
341,536,
341,539,
341,538,
341,537,
340,538,
340,541,
341,542,
343,541,
342,537,
342,535,
341,534,
341,534,
343,530,
343,529,
342,530,
341,533,
341,536,
342,534,
341,532,
342,531,
341,534,
342,536,
342,534,
341,530,
340,527,
339,526,
337,525,
337,523,
337,521,
336,519,
334,522,
334,525,
334,524,
334,522,
334,519,
332,520,
332,522,
331,522,
332,519,
332,518,
331,521,
329,525,
330,525,
331,523,
330,518,
328,517,
328,515,
327,512,
328,508,
326,503,
324,501,
323,501,
325,499,
324,496,
325,492,
324,491,
323,491,
323,491,
324,489,
325,487,
323,486,
322,488,
322,488,
322,487,
321,485,
319,484,
319,486,
318,487,
319,486,
319,485,
318,486,
318,488,
317,490,
317,487,
316,485,
315,486,
314,487,
313,489,
313,492,
312,495,
313,498,
311,504,
311,511,
312,516,
311,519,
311,524,
311,531,
310,532,
311,525,
311,514,
311,503,
311,494,
311,486,
310,476,
311,465,
311,457,
311,451,
312,448,
312,444,
312,439,
313,437,
313,436,
314,438,
314,438,
315,437,
314,439,
314,445,
315,455,
315,461,
314,464,
313,468,
313,473,
312,478,
312,481,
311,482,
310,484,
310,486,
308,489,
307,491,
307,490,
306,488,
306,487,
305,489,
304,491,
304,490,
304,490,
305,491,
306,493,
305,494,
305,491,
305,488,
305,486,
305,487,
305,487,
307,485,
307,481,
308,479,
310,479,
312,480,
314,478,
317,475,
320,474,
324,478,
327,482,
330,484,
334,483,
338,485,
341,489,
345,494,
349,499,
354,501,
358,504,
363,510,
367,517,
370,522,
375,525,
378,527,
381,534,
384,540,
387,544,
390,545,
391,547,
392,551,
394,557,
394,560,
394,560,
395,560,
396,563,
396,568,
396,569,
395,567,
395,567,
393,568,
392,572,
390,573,
390,570,
388,569,
386,569,
385,571,
383,572,
382,569,
381,565,
380,564,
379,565,
379,565,
379,562,
378,557,
377,555,
375,557,
373,557,
372,554,
371,550,
369,547,
367,548,
366,548,
365,544,
365,539,
363,537,
362,539,
360,539,
360,536,
358,533,
356,531,
354,533,
352,535,
351,534,
350,532,
349,531,
348,534,
346,537,
345,536,
345,533,
344,531,
343,532,
342,533,
343,531,
342,528,
343,524,
343,524,
343,526,
343,525,
343,522,
342,520,
342,520,
342,523,
343,522,
343,518,
342,517,
342,517,
342,521,
342,521,
342,518,
342,515,
341,515,
341,517,
341,517,
340,513,
339,510,
339,509,
338,512,
338,512,
338,510,
338,506,
338,507,
338,509,
338,510,
338,508,
338,506,
337,505,
336,508,
336,510,
335,509,
335,506,
335,506,
333,509,
333,512,
333,512,
333,511,
332,511,
331,515,
330,518,
330,518,
330,516,
329,514,
328,516,
328,517,
327,515,
327,510,
326,508,
325,509,
325,510,
325,506,
324,502,
324,498,
323,498,
322,499,
321,497,
320,492,
319,490,
319,489,
317,491,
317,490,
316,486,
315,484,
314,485,
313,488,
312,489,
312,485,
312,483,
312,484,
312,486,
312,487,
312,484,
312,481,
311,482,
311,485,
311,486,
310,484,
310,480,
309,480,
309,482,
309,482,
308,480,
308,477,
307,476,
307,478,
307,479,
307,476,
308,473,
307,472,
308,475,
308,477,
307,476,
307,474,
307,474,
306,477,
307,480,
306,478,
305,475,
306,474,
305,476,
305,479,
306,477,
305,474,
305,472,
305,475,
305,477,
305,476,
305,473,
305,472,
304,475,
304,478,
304,478,
304,476,
304,475,
304,478,
303,482,
304,482,
304,479,
303,479,
303,482,
303,486,
304,485,
304,482,
304,480,
304,480,
304,483,
304,483,
304,479,
304,476,
303,478,
303,480,
303,480,
303,477,
304,473,
303,473,
304,477,
304,478,
305,475,
305,473,
307,476,
308,481,
311,484,
313,484,
315,484,
318,487,
321,494,
324,501,
326,506,
330,511,
334,517,
338,526,
342,536,
345,541,
349,544,
353,552,
358,567,
362,584,
367,596,
370,607,
375,617,
378,626,
383,632,
385,632,
389,630,
392,628,
395,629,
398,631,
401,629,
402,624,
403,621,
403,623,
403,628,
404,628,
405,624,
405,622,
403,621,
402,617,
402,610,
402,599,
400,589,
399,584,
398,581,
398,574,
398,564,
397,556,
397,552,
396,552,
395,549,
395,544,
393,540,
392,539,
391,543,
391,543,
390,539,
390,535,
389,535,
388,538,
387,538,
387,534,
387,531,
386,530,
384,533,
384,536,
385,535,
384,532,
382,533,
381,537,
379,540,
378,539,
376,536,
373,536,
372,538,
370,541,
368,539,
367,536,
366,536,
365,538,
365,538,
364,534,
362,528,
360,526,
358,526,
358,527,
355,523,
354,518,
353,515,
352,518,
351,520,
350,519,
349,518,
348,518,
347,521,
346,524,
346,526,
345,524,
344,522,
343,524,
342,526,
342,526,
341,522,
343,518,
342,517,
342,520,
343,518,
343,514,
342,510,
343,509,
343,510,
343,510,
343,507,
343,504,
342,504,
342,507,
342,509,
341,508,
341,507,
340,509,
339,514,
339,516,
339,516,
338,515,
336,516,
336,520,
335,523,
335,523,
334,523,
332,523,
331,527,
331,528,
330,527,
329,525,
327,524,
327,525,
326,526,
326,524,
325,520,
325,518,
323,520,
323,520,
323,517,
323,512,
323,510,
323,510,
322,510,
321,508,
321,503,
321,501,
320,501,
320,501,
320,499,
320,495,
319,490,
318,490,
317,491,
318,489,
317,485,
316,482,
315,482,
314,484,
314,483,
315,480,
314,478,
312,478,
312,481,
312,482,
312,482,
312,482,
311,485,
312,490,
313,493,
312,496,
312,498,
311,502,
310,506,
309,507,
310,503,
309,500,
308,501,
307,503,
309,504,
310,503,
310,503,
308,506,
307,514,
307,520,
307,522,
307,519,
306,515,
305,514,
307,510,
308,503,
307,496,
307,492,
305,491,
306,488,
306,482,
305,473,
303,467,
302,465,
302,462,
303,458,
302,452,
302,448,
300,450,
300,453,
301,454,
301,453,
300,453,
300,458,
300,464,
301,467,
302,469,
301,470,
300,473,
300,476,
301,476,
302,472,
302,470,
300,471,
300,475,
301,476,
302,475,
303,475,
302,478,
302,483,
303,486,
303,486,
303,486,
302,487,
302,488,
303,488,
304,486,
304,485,
303,485,
302,489,
302,489,
303,487,
302,483,
301,482,
300,483,
302,482,
303,477,
303,472,
303,471,
304,473,
306,475,
308,474,
310,471,
311,472,
311,476,
315,480,
319,483,
323,484,
326,487,
329,495,
333,502,
338,507,
342,513,
344,524,
348,538,
353,549,
357,554,
362,553,
365,553,
369,553,
374,554,
379,552,
383,547,
386,545,
389,544,
392,544,
395,541,
398,537,
399,535,
398,536,
399,536,
401,536,
403,532,
402,529,
402,530,
402,531,
402,531,
403,530,
402,529,
401,532,
400,536,
401,539,
401,539,
400,540,
399,542,
397,547,
398,551,
398,551,
397,551,
395,553,
394,558,
393,561,
394,561,
393,561,
392,561,
391,564,
392,565,
392,564,
391,562,
389,563,
387,566,
387,568,
387,568,
385,565,
383,565,
380,567,
379,568,
379,566,
377,561,
374,559,
371,560,
369,560,
369,557,
367,552,
365,549,
363,549,
361,549,
361,545,
358,541,
357,537,
355,537,
353,537,
354,534,
353,530,
351,528,
350,529,
349,530,
349,530,
348,526,
347,524,
346,525,
346,527,
347,528,
347,526,
346,525,
344,525,
344,528,
344,528,
344,527,
343,526,
343,526,
342,529,
342,530,
342,528,
341,526,
341,525,
340,528,
341,529,
342,528,
342,527,
341,527,
339,530,
341,531,
341,529,
341,526,
339,524,
338,525,
339,527,
339,525,
338,523,
335,523,
334,525,
333,525,
333,523,
332,520,
330,518,
329,519,
329,519,
329,516,
329,511,
328,510,
328,511,
328,512,
329,509,
329,504,
327,501,
325,503,
325,504,
326,502,
325,499,
324,495,
322,496,
322,496,
322,494,
322,490,
320,487,
318,487,
317,489,
316,488,
315,484,
313,482,
312,483,
311,484,
309,484,
310,482,
308,480,
307,481,
307,483,
308,484,
309,483,
308,482,
307,482,
306,486,
307,487,
307,486,
306,484,
305,485,
304,488,
304,489,
305,489,
305,487,
303,488,
302,491,
302,491,
302,488,
301,486,
301,484,
300,485,
300,485,
300,482,
300,479,
299,477,
298,479,
298,480,
299,478,
300,476,
299,475,
298,476,
299,477,
300,474,
300,472,
300,471,
299,471,
299,472,
300,471,
301,467,
300,466,
300,468,
300,469,
302,468,
302,466,
302,465,
300,467,
301,470,
301,471,
302,469,
301,467,
301,469,
300,471,
300,470,
300,467,
298,467,
296,470,
295,473,
295,474,
297,472,
296,471,
295,472,
295,474,
296,474,
297,471,
297,469,
297,469,
297,471,
298,471,
299,469,
299,467,
298,467,
297,468,
299,468,
300,467,
300,464,
300,464,
299,467,
299,468,
300,467,
301,464,
300,464,
299,466,
300,468,
301,466,
301,464,
299,464,
299,467,
300,467,
301,465,
301,464,
300,464,
299,469,
300,472,
300,473,
301,474,
300,476,
300,480,
300,484,
301,487,
303,488,
303,492,
302,501,
303,512,
305,518,
307,521,
308,524,
309,531,
311,534,
315,532,
318,528,
320,524,
323,522,
327,521,
332,520,
337,516,
340,513,
343,515,
348,518,
353,519,
358,518,
361,517,
363,520,
367,525,
372,527,
375,528,
378,528,
380,530,
382,536,
385,540,
387,541,
389,543,
389,546,
390,552,
392,556,
393,556,
394,557,
393,559,
392,564,
391,569,
392,570,
390,571,
388,573,
387,578,
387,581,
387,580,
385,578,
384,577,
382,579,
383,578,
382,574,
382,570,
379,568,
378,571,
377,572,
378,570,
377,568,
375,566,
373,567,
373,567,
373,564,
372,560,
371,558,
368,559,
368,559,
367,557,
366,552,
364,549,
362,547,
360,545,
360,542,
359,536,
357,531,
355,529,
353,529,
353,526,
352,521,
350,518,
348,516,
347,518,
347,515,
348,512,
348,511,
346,512,
345,517,
345,518,
346,517,
346,517,
344,520,
344,525,
345,528,
346,528,
346,527,
345,527,
345,529,
346,529,
346,527,
345,525,
343,524,
343,526,
343,526,
344,524,
343,522,
341,521,
341,521,
341,522,
341,517,
340,513,
338,508,
336,506,
336,506,
338,504,
337,500,
337,498,
337,499,
338,501,
340,499,
340,497,
339,496,
339,499,
339,502,
340,503,
340,501,
339,502,
337,504,
336,507,
337,507,
336,505,
334,504,
333,505,
332,507,
333,506,
332,503,
332,501,
330,502,
329,505,
330,504,
330,501,
328,499,
327,500,
326,503,
325,503,
326,502,
325,502,
324,504,
324,509,
324,510,
325,510,
324,508,
323,509,
322,511,
322,511,
322,508,
320,505,
319,505,
317,507,
316,509,
316,506,
316,504,
315,502,
315,504,
316,504,
316,502,
316,498,
314,496,
313,497,
312,496,
312,493,
311,489,
311,487,
309,488,
310,487,
309,485,
310,481,
309,479,
307,480,
307,482,
307,481,
308,478,
307,476,
305,477,
306,478,
306,477,
307,474,
306,472,
305,474,
305,476,
306,475,
308,473,
307,472,
306,475,
305,481,
305,483,
305,483,
304,483,
303,486,
302,489,
303,491,
303,489,
303,489,
301,490,
301,492,
301,493,
302,491,
302,490,
301,493,
302,497,
303,498,
304,497,
304,496,
306,499,
307,505,
310,511,
312,513,
315,513,
317,517,
320,523,
325,527,
329,529,
332,532,
335,538,
339,547,
345,554,
351,560,
356,565,
360,571,
363,577,
368,581,
374,582,
378,581,
380,581,
383,585,
386,587,
391,588,
393,586,
394,585,
394,586,
396,588,
397,587,
398,585,
398,583,
396,584,
397,583,
399,581,
399,576,
399,574,
398,576,
397,580,
397,581,
397,581,
396,580,
393,582,
392,583,
393,582,
392,580,
390,578,
389,580,
388,582,
389,582,
388,581,
387,576,
385,571,
384,567,
385,566,
384,561,
382,553,
380,547,
378,545,
376,539,
375,532,
374,524,
371,520,
368,518,
366,516,
365,511,
363,506,
360,504,
358,505,
357,506,
356,504,
353,503,
351,503,
349,507,
348,509,
347,508,
346,506,
343,505,
342,507,
342,509,
341,507,
340,505,
338,504,
336,507,
336,508,
336,508,
335,504,
334,502,
332,503,
332,503,
333,500,
333,496,
332,493,
331,494,
331,494,
332,494,
331,492,
330,491,
330,493,
330,496,
330,497,
331,496,
330,497,
330,501,
331,505,
332,508,
332,508,
332,509,
330,512,
330,516,
331,516,
331,515,
330,514,
328,515,
327,518,
327,520,
327,518,
326,517,
323,518,
322,520,
322,520,
322,519,
320,518,
318,519,
317,522,
317,522,
318,518,
318,514,
316,512,
316,513,
317,513,
317,510,
317,507,
315,505,
315,507,
316,507,
317,505,
317,502,
315,501,
315,503,
315,504,
316,502,
316,498,
315,497,
315,498,
315,499,
316,497,
317,494,
316,492,
315,492,
315,492,
316,490,
316,487,
315,484,
314,484,
313,484,
314,481,
314,477,
313,474,
312,476,
312,477,
313,475,
314,472,
313,469,
311,470,
311,471,
312,472,
312,469,
311,467,
310,468,
309,470,
309,471,
309,469,
308,468,
308,469,
308,471,
309,472,
308,470,
309,469,
308,470,
308,473,
310,473,
311,472,
310,471,
309,473,
309,477,
309,480,
308,479,
307,479,
306,481,
304,486,
305,491,
305,492,
305,493,
305,495,
303,499,
303,501,
304,500,
303,499,
302,500,
301,502,
301,503,
301,501,
301,498,
299,499,
299,506,
299,512,
299,512,
298,506,
297,500,
296,498,
297,496,
298,490,
299,484,
299,478,
299,475,
299,473,
300,469,
301,462,
300,457,
299,456,
299,456,
300,453,
301,449,
300,445,
300,446,
301,447,
303,446,
306,445,
307,444,
307,446,
309,452,
311,455,
314,457,
317,461,
319,468,
321,478,
326,484,
331,489,
334,494,
338,502,
342,512,
347,520,
352,525,
356,531,
359,540,
362,551,
366,561,
370,568,
374,574,
376,580,
379,589,
382,594,
385,596,
388,596,
389,598,
389,601,
391,604,
393,604,
394,604,
394,604,
395,609,
395,613,
396,613,
396,611,
395,610,
395,612,
396,610,
396,606,
395,600,
394,595,
392,594,
392,592,
392,589,
392,583,
391,579,
389,577,
389,576,
390,572,
390,566,
389,562,
387,561,
387,560,
386,557,
386,552,
384,549,
382,548,
381,548,
381,545,
382,540,
381,534,
378,531,
377,529,
376,525,
375,517,
374,511,
372,507,
369,507,
368,505,
368,501,
366,496,
363,496,
361,500,
360,502,
359,503,
357,503,
355,506,
353,511,
353,514,
352,517,
350,521,
347,527,
345,537,
343,545,
343,549,
342,553,
340,559,
339,566,
340,571,
340,574,
340,576,
339,577,
339,579,
339,579,
340,575,
339,569,
339,565,
339,562,
339,559,
340,553,
340,544,
339,539,
338,536,
339,533,
340,528,
340,522,
340,517,
339,516,
339,514,
339,509,
339,504,
339,499,
339,499,
339,498,
340,496,
340,491,
340,489,
340,489,
340,490,
339,490,
340,489,
338,488,
335,491,
333,494,
332,496,
332,495,
330,495,
328,498,
326,501,
325,504,
325,504,
324,505,
322,509,
321,516,
320,520,
320,521,
320,523,
319,524,
317,525,
319,521,
319,515,
319,507,
319,502,
318,500,
319,497,
321,492,
320,486,
320,481,
319,479,
320,475,
321,470,
320,465,
319,461,
318,462,
318,460,
319,457,
318,452,
318,449,
315,451,
315,452,
316,451,
316,449,
315,448,
315,451,
313,454,
313,456,
312,454,
311,454,
309,458,
310,463,
310,464,
311,464,
309,464,
309,467,
308,471,
308,471,
309,471,
308,471,
307,473,
307,476,
307,477,
309,476,
308,476,
308,479,
308,483,
309,487,
308,489,
308,490,
306,495,
306,500,
307,503,
306,503,
306,504,
305,507,
304,513,
304,517,
304,517,
305,516,
304,516,
303,518,
304,518,
304,515,
304,514,
303,516,
302,521,
303,527,
303,532,
303,536,
302,539,
303,542,
303,541,
303,538,
303,535,
302,533,
302,534,
303,533,
304,529,
304,527,
303,528,
302,530,
303,531,
304,526,
305,516,
304,506,
304,501,
305,495,
306,488,
308,478,
307,471,
306,466,
306,463,
305,457,
306,451,
304,444,
302,442,
300,442,
300,440,
300,436,
300,435,
299,438,
298,441,
300,442,
300,441,
299,440,
298,443,
298,447,
299,448,
300,448,
300,448,
300,452,
301,457,
303,460,
304,461,
304,463,
305,469,
307,477,
310,483,
314,488,
316,493,
318,504,
321,519,
325,534,
330,544,
335,550,
337,553,
341,556,
346,557,
351,555,
355,553,
358,553,
362,556,
367,557,
371,555,
374,551,
377,549,
378,549,
381,549,
385,545,
388,542,
390,541,
389,542,
391,544,
391,542,
392,540,
390,540,
389,544,
389,547,
389,549,
390,548,
389,548,
388,550,
389,553,
389,554,
390,552,
389,551,
388,553,
387,557,
387,559,
388,557,
386,557,
384,559,
383,564,
384,565,
383,563,
381,562,
379,563,
377,565,
377,564,
376,562,
375,560,
374,559,
372,561,
372,560,
371,557,
369,555,
366,555,
364,557,
363,558,
362,558,
359,556,
356,557,
353,560,
352,561,
351,560,
350,559,
348,558,
345,558,
343,555,
343,548,
341,538,
339,529,
338,524,
338,519,
338,512,
338,503,
336,498,
335,496,
334,494,
334,491,
334,486,
332,483,
330,484,
330,484,
329,482,
329,481,
328,480,
327,483,
326,486,
327,486,
327,486,
326,486,
325,488,
324,492,
325,494,
324,493,
323,492,
322,494,
322,499,
323,499,
324,498,
323,498,
323,501,
323,503,
325,505,
325,503,
325,502,
325,505,
324,508,
325,509,
326,507,
325,505,
325,506,
324,508,
325,508,
325,506,
324,503,
322,503,
320,504,
321,505,
322,502,
320,500,
319,499,
318,501,
319,501,
320,497,
321,494,
319,493,
318,494,
317,494,
316,491,
315,487,
314,485,
311,487,
311,488,
311,486,
310,483,
309,482,
308,483,
308,484,
309,482,
308,478,
306,477,
304,478,
303,480,
304,478,
303,475,
302,474,
300,476,
302,479,
303,479,
303,477,
303,477,
302,480,
303,482,
304,483,
304,482,
302,481,
302,483,
301,485,
302,485,
303,482,
302,480,
301,482,
302,485,
302,485,
302,482,
302,479,
301,480,
301,482,
301,482,
301,480,
302,479,
301,479,
300,480,
301,480,
302,479,
302,478,
301,479,
300,482,
301,484,
302,482,
302,482,
302,483,
302,486,
303,488,
303,487,
303,487,
301,487,
300,489,
300,491,
300,490,
300,488,
298,488,
297,489,
297,489,
297,487,
298,483,
298,482,
298,482,
298,482,
299,482,
300,479,
299,477,
297,476,
297,475,
298,473,
298,467,
297,464,
297,465,
298,466,
298,466,
298,464,
298,461,
297,462,
296,464,
297,463,
298,460,
297,458,
297,460,
297,463,
297,464,
298,463,
298,463,
298,464,
298,467,
299,466,
300,463,
300,461,
300,461,
300,465,
301,466,
302,464,
303,464,
304,467,
305,473,
308,478,
311,481,
313,484,
315,491,
317,501,
321,511,
325,518,
329,525,
332,533,
335,544,
338,553,
343,559,
347,563,
350,569,
353,576,
357,583,
360,585,
363,587,
365,591,
366,598,
368,604,
370,608,
372,611,
372,619,
373,626,
375,629,
377,626,
380,620,
379,614,
378,611,
378,607,
377,600,
378,592,
376,583,
374,578,
373,572,
373,565,
372,554,
371,546,
369,541,
368,536,
367,530,
367,522,
366,514,
364,509,
363,506,
363,501,
362,495,
361,492,
359,492,
358,494,
358,496,
358,495,
356,496,
353,499,
352,504,
352,507,
351,507,
350,508,
347,513,
345,519,
345,521,
344,521,
343,520,
341,519,
339,520,
339,520,
338,518,
337,514,
336,513,
335,514,
335,514,
335,513,
335,510,
335,510,
334,511,
335,513,
335,511,
334,510,
333,509,
332,512,
332,514,
333,513,
333,511,
332,510,
332,511,
332,512,
333,511,
333,509,
332,507,
332,509,
333,511,
333,510,
334,508,
334,507,
333,509,
333,512,
334,512,
334,509,
334,508,
332,511,
332,515,
333,517,
332,516,
331,516,
330,519,
329,523,
329,523,
328,521,
327,520,
327,520,
326,523,
326,523,
327,521,
327,519,
325,519,
324,520,
325,519,
325,515,
325,513,
324,514,
323,517,
323,520,
325,520,
324,522,
323,526,
323,532,
324,536,
325,536,
325,534,
323,534,
322,538,
322,543,
323,542,
323,537,
323,530,
323,526,
323,521,
324,512,
323,503,
320,496,
320,493,
319,489,
320,483,
320,475,
318,469,
317,467,
317,465,
318,462,
317,457,
316,455,
314,455,
313,456,
314,455,
314,453,
313,453,
311,456,
311,462,
311,465,
310,465,
310,467,
308,471,
308,475,
309,477,
309,481,
309,486,
309,494,
309,505,
310,514,
311,518,
311,521,
309,521,
308,518,
308,510,
308,499,
308,488,
306,479,
305,472,
306,463,
307,453,
305,442,
304,436,
304,433,
306,429,
306,423,
306,418,
305,415,
303,416,
304,416,
304,413,
304,412,
303,414,
303,418,
303,422,
304,424,
305,425,
305,428,
304,435,
306,441,
308,444,
310,448,
310,453,
312,462,
316,471,
319,478,
323,483,
325,490,
328,499,
332,509,
337,517,
342,523,
344,528,
346,538,
350,546,
354,552,
358,555,
360,559,
361,566,
364,574,
368,579,
371,581,
373,584,
375,588,
377,593,
380,596,
382,595,
383,595,
383,598,
384,602,
386,601,
388,599,
389,596,
388,595,
388,596,
389,594,
390,590,
390,587,
388,585,
387,585,
388,583,
389,579,
388,575,
386,572,
386,573,
385,573,
385,570,
385,565,
383,561,
382,562,
382,560,
382,555,
381,551,
379,548,
378,548,
378,548,
378,544,
376,540,
373,538,
371,538,
370,539,
369,537,
368,534,
366,532,
363,533,
362,532,
361,529,
359,524,
357,519,
354,518,
354,518,
354,515,
353,513,
351,512,
349,515,
348,519,
348,520,
349,519,
349,519,
347,522,
347,524,
348,523,
348,520,
347,517,
348,516,
347,516,
348,513,
348,509,
347,506,
345,506,
345,508,
344,509,
345,508,
344,507,
343,509,
342,513,
343,514,
344,513,
342,512,
341,513,
341,515,
342,516,
342,514,
342,513,
340,513,
340,517,
340,518,
340,516,
340,513,
339,512,
337,513,
337,513,
337,511,
337,507,
335,506,
335,507,
335,508,
335,506,
334,504,
332,503,
331,505,
331,505,
330,502,
329,499,
328,498,
326,501,
326,505,
326,506,
326,506,
325,506,
325,508,
324,511,
326,515,
325,518,
323,526,
321,539,
320,551,
320,561,
319,562,
318,560,
316,556,
316,548,
316,536,
315,522,
314,508,
312,498,
312,489,
312,480,
311,470,
309,461,
308,456,
308,454,
308,450,
308,444,
308,439,
306,438,
305,438,
305,437,
305,435,
303,433,
302,434,
301,437,
301,440,
301,439,
301,439,
299,441,
298,446,
298,449,
298,449,
298,450,
296,452,
296,457,
297,460,
298,460,
297,460,
297,461,
296,464,
296,468,
296,468,
296,466,
295,466,
294,470,
294,472,
294,472,
294,470,
292,469,
290,471,
291,473,
291,472,
291,471,
291,470,
290,473,
290,476,
291,476,
292,474,
291,474,
290,476,
292,477,
294,477,
295,475,
296,474,
297,477,
297,481,
299,486,
301,490,
301,496,
301,503,
302,513,
304,519,
305,522,
305,525,
305,530,
305,536,
307,532,
308,522,
309,512,
308,504,
310,499,
312,493,
315,486,
316,481,
317,481,
319,483,
322,483,
327,483,
331,484,
334,486,
337,491,
342,498,
347,502,
351,505,
354,511,
358,518,
361,526,
365,533,
369,537,
372,543,
375,550,
378,556,
381,559,
384,560,
386,562,
387,567,
389,572,
391,574,
393,573,
394,574,
394,578,
395,581,
396,581,
397,579,
396,578,
396,581,
396,583,
397,584,
396,582,
394,581,
392,582,
392,583,
392,583,
391,580,
389,578,
387,578,
384,578,
383,576,
382,570,
381,566,
378,565,
376,566,
376,564,
376,560,
374,558,
373,558,
372,557,
372,556,
372,554,
371,550,
371,548,
369,548,
369,546,
369,542,
367,537,
365,533,
362,532,
362,531,
360,527,
358,523,
356,520,
353,520,
352,519,
351,515,
349,511,
346,509,
343,509,
342,509,
341,507,
340,505,
338,504,
336,506,
335,508,
336,508,
335,507,
334,507,
332,509,
332,512,
332,514,
331,514,
331,516,
330,520,
330,523,
331,524,
332,523,
333,523,
333,526,
335,529,
336,528,
338,526,
338,524,
337,525,
338,526,
339,526,
340,524,
339,523,
338,523,
337,525,
338,525,
338,523,
338,521,
337,521,
336,523,
336,523,
337,523,
336,525,
335,529,
334,532,
334,534,
334,534,
333,534,
331,535,
329,539,
330,541,
331,538,
329,535,
328,533,
327,532,
327,529,
327,524,
326,520,
324,518,
323,519,
324,519,
324,517,
323,514,
322,514,
321,515,
321,514,
319,512,
318,508,
316,506,
314,506,
314,506,
314,502,
313,497,
311,494,
309,493,
309,492,
309,489,
309,486,
308,484,
307,486,
308,486,
308,484,
307,481,
307,480,
305,480,
306,480,
307,478,
308,475,
307,473,
307,474,
306,476,
306,476,
306,473,
306,472,
305,473,
305,476,
304,477,
304,476,
304,475,
303,478,
303,482,
304,484,
304,485,
305,485,
304,484,
305,485,
306,486,
307,483,
307,479,
307,477,
306,479,
307,480,
308,476,
308,471,
306,470,
305,475,
305,478,
306,475,
307,473,
306,473,
304,478,
306,479,
307,477,
307,473,
305,474,
303,478,
303,483,
305,483,
305,481,
303,481,
302,486,
301,490,
302,489,
302,487,
300,488,
298,493,
298,499,
298,503,
299,502,
297,500,
295,501,
295,500,
297,493,
297,482,
296,474,
296,471,
298,469,
301,464,
305,457,
306,453,
306,456,
309,460,
314,462,
318,461,
322,463,
324,468,
329,476,
334,480,
340,480,
344,481,
348,488,
351,497,
356,503,
362,505,
366,507,
368,513,
371,524,
376,531,
380,536,
382,539,
383,547,
384,558,
387,566,
390,572,
391,576,
390,583,
390,593,
391,599,
392,600,
392,598,
391,600,
389,606,
389,610,
390,608,
389,606,
388,605,
385,608,
384,608,
385,605,
384,599,
382,595,
380,598,
379,598,
379,593,
380,586,
377,583,
374,582,
373,582,
374,578,
373,571,
371,566,
368,566,
366,566,
368,562,
368,556,
366,552,
363,552,
361,552,
361,547,
359,541,
357,536,
353,536,
352,537,
351,534,
350,528,
348,522,
345,519,
343,519,
342,518,
342,513,
340,508,
337,508,
334,511,
334,511,
335,507,
334,504,
333,504,
330,508,
330,508,
332,504,
331,501,
330,503,
329,509,
330,513,
332,513,
332,511,
331,512,
330,518,
331,522,
333,521,
333,520,
332,521,
332,525,
334,528,
335,526,
335,523,
335,522,
334,527,
334,530,
336,529,
336,525,
334,524,
332,528,
331,533,
332,533,
333,528,
330,527,
328,531,
329,533,
331,531,
331,525,
330,519,
327,519,
327,519,
328,515,
330,505,
329,499,
327,499,
326,499,
326,496,
326,490,
324,486,
323,487,
321,491,
323,491,
323,487,
322,486,
319,491,
318,498,
319,502,
319,502,
318,502,
316,507,
315,512,
316,513,
316,512,
315,510,
313,509,
313,511,
313,508,
314,501,
313,493,
310,490,
308,490,
308,488,
310,481,
309,474,
307,472,
306,472,
307,469,
307,462,
307,454,
305,451,
303,452,
303,451,
305,447,
305,440,
303,438,
301,440,
302,442,
303,439,
303,435,
303,435,
302,439,
302,444,
303,445,
305,443,
304,443,
302,449,
303,455,
305,456,
306,455,
305,456,
303,462,
303,468,
306,471,
306,471,
305,473,
304,480,
304,486,
306,489,
307,489,
306,491,
304,497,
303,504,
304,507,
305,503,
304,501,
302,507,
301,516,
303,519,
304,514,
303,508,
300,506,
299,506,
299,503,
301,496,
301,488,
299,485,
297,487,
299,484,
300,477,
300,469,
298,466,
298,468,
300,468,
301,464,
302,458,
303,458,
302,463,
305,467,
308,465,
310,463,
312,465,
313,474,
316,482,
320,485,
324,486,
326,492,
328,501,
332,509,
337,513,
341,516,
343,524,
345,536,
350,548,
355,554,
360,558,
362,563,
363,573,
366,582,
370,587,
373,585,
374,586,
374,590,
376,594,
379,593,
381,587,
381,584,
382,586,
381,589,
383,589,
384,584,
384,580,
382,581,
382,585,
383,584,
384,578,
382,575,
380,575,
378,579,
379,577,
380,571,
379,567,
376,566,
375,569,
375,569,
375,565,
375,560,
372,559,
370,561,
370,560,
370,555,
368,550,
365,549,
362,552,
362,552,
362,546,
360,540,
356,536,
353,539,
352,539,
351,535,
349,530,
346,528,
342,530,
339,531,
339,528,
338,525,
335,525,
332,530,
331,534,
331,533,
331,530,
329,527,
327,530,
327,532,
329,530,
330,525,
328,524,
326,525,
327,527,
327,526,
327,520,
326,516,
324,514,
324,513,
324,510,
324,505,
324,500,
323,500,
323,499,
324,499,
324,497,
325,498,
324,499,
325,502,
326,504,
326,503,
326,502,
326,503,
326,505,
329,505,
329,502,
330,500,
329,498,
329,499,
330,499,
331,496,
332,495,
330,496,
331,499,
331,500,
332,499,
332,496,
331,495,
330,498,
330,500,
331,499,
330,500,
328,502,
328,505,
328,506,
328,505,
328,503,
326,503,
326,505,
326,507,
326,507,
325,505,
323,506,
322,508,
321,508,
321,504,
320,498,
319,493,
316,492,
316,492,
316,488,
316,484,
315,481,
312,483,
312,488,
312,490,
313,489,
312,488,
309,490,
309,491,
309,492,
310,490,
309,487,
307,489,
305,492,
307,492,
307,488,
307,485,
305,485,
303,488,
305,487,
306,481,
305,475,
303,473,
301,473,
302,471,
303,465,
302,459,
301,456,
300,458,
301,457,
302,451,
302,447,
300,445,
298,449,
300,450,
301,447,
300,444,
299,444,
298,448,
300,452,
302,450,
303,448,
302,448,
301,454,
301,457,
303,457,
303,455,
303,456,
302,463,
303,468,
304,468,
305,466,
304,465,
303,470,
304,474,
306,472,
307,468,
306,468,
304,471,
304,474,
306,473,
307,468,
307,466,
305,468,
304,469,
305,468,
307,463,
305,460,
303,462,
304,465,
304,465,
305,462,
305,461,
302,465,
301,469,
303,470,
304,466,
304,466,
303,469,
303,476,
305,480,
307,479,
308,478,
308,481,
308,488,
311,492,
314,492,
317,491,
318,495,
320,502,
324,507,
329,509,
333,510,
334,516,
337,525,
342,532,
346,534,
349,534,
351,537,
352,544,
355,548,
359,550,
362,550,
363,552,
363,560,
367,565,
371,566,
373,564,
373,566,
373,572,
375,578,
378,578,
379,575,
378,575,
376,579,
376,583,
377,583,
377,580,
375,580,
371,583,
369,587,
369,586,
368,582,
365,580,
361,582,
359,585,
359,583,
359,578,
357,575,
355,576,
353,579,
355,576,
356,571,
354,566,
352,567,
350,571,
351,571,
351,567,
349,567,
347,576,
346,585,
345,585,
347,577,
344,567,
342,561,
340,557,
340,550,
341,539,
340,526,
338,518,
336,513,
336,506,
337,496,
336,484,
334,477,
332,474,
333,468,
334,458,
334,449,
332,442,
331,441,
332,439,
332,434,
332,427,
329,426,
327,430,
327,433,
328,432,
329,431,
328,432,
327,441,
328,448,
329,451,
331,452,
330,455,
328,464,
328,473,
330,477,
330,478,
329,481,
328,489,
329,498,
330,501,
331,499,
330,500,
329,506,
329,512,
330,513,
331,510,
329,508,
327,511,
327,515,
327,514,
327,508,
327,504,
324,505,
324,509,
324,509,
325,506,
324,505,
322,507,
321,512,
321,513,
321,509,
321,505,
320,505,
318,508,
319,509,
320,506,
320,502,
319,501,
318,503,
318,504,
319,500,
319,497,
317,495,
316,498,
317,499,
317,496,
317,491,
315,489,
313,491,
313,492,
315,488,
315,484,
312,482,
310,486,
311,487,
312,485,
312,481,
310,480,
308,483,
308,485,
307,483,
308,478,
307,476,
305,479,
305,482,
307,480,
306,475,
305,473,
304,478,
305,481,
307,482,
308,479,
306,478,
305,482,
305,488,
305,489,
306,487,
305,487,
303,493,
303,498,
304,499,
305,498,
304,500,
303,506,
303,514,
305,516,
307,513,
307,511,
306,514,
306,518,
307,519,
308,516,
309,513,
308,515,
306,520,
309,521,
311,516,
310,510,
309,507,
308,505,
309,502,
310,494,
309,486,
306,484,
305,486,
306,484,
306,480,
305,478,
303,480,
302,486,
303,490,
304,490,
304,487,
302,487,
300,491,
301,493,
302,491,
302,486,
300,485,
298,490,
300,498,
302,501,
304,500,
304,498,
305,502,
307,507,
310,510,
313,509,
315,512,
317,518,
321,526,
327,530,
332,531,
335,534,
337,542,
341,543,
346,535,
351,524,
352,515,
355,513,
357,511,
362,508,
366,502,
367,497,
368,498,
369,501,
373,502,
375,500,
377,500,
377,507,
378,516,
379,522,
382,524,
383,527,
381,534,
381,543,
381,548,
382,549,
382,549,
380,555,
378,564,
