PPG A0,PPG A1,event_code
379,433,
371,427,
362,421,
348,416,
340,411,
331,406,
326,402,
316,399,
306,397,
298,396,
292,390,
289,394,
278,393,
272,396,
268,393,
269,399,
264,402,
257,403,
253,408,
249,411,
252,414,
251,419,
252,423,
248,430,
248,433,
252,439,
257,447,
258,452,
257,456,
257,459,
261,464,
264,467,
270,473,
268,479,
268,480,
273,481,
277,486,
279,488,
278,492,
279,493,
284,492,
286,492,
286,496,
286,492,
286,493,
288,493,
289,494,
294,493,
290,491,
289,489,
289,485,
290,486,
296,481,
294,482,
286,480,
290,478,
292,476,
292,474,
288,472,
286,470,
288,467,
289,464,
288,462,
287,463,
284,458,
282,456,
281,452,
284,453,
282,451,
277,449,
277,446,
276,442,
280,445,
274,442,
273,442,
270,439,
272,437,
271,440,
268,439,
265,439,
261,439,
262,438,
263,438,
258,440,
255,438,
254,436,
250,438,
251,437,
252,440,
247,440,
245,439,
250,443,
246,441,
246,444,
242,446,
243,444,
244,444,
245,445,
246,448,
245,448,
243,447,
244,448,
246,450,
248,448,
240,448,
242,450,
243,449,
248,453,
251,452,
246,454,
241,453,
239,453,
243,453,
245,456,
244,455,
242,455,
239,452,
243,456,
249,455,
245,457,
245,457,
246,456,
248,455,
250,458,
248,457,
247,460,
249,457,
253,461,
256,466,
256,470,
254,475,
257,479,
258,487,
268,498,
270,509,
268,520,
276,536,
282,549,
296,572,
304,591,
311,612,
317,631,
337,657,
351,679,
367,699,
378,723,
392,740,
412,758,
433,772,
444,787,
462,799,
477,806,
496,814,
516,818,
528,821,
542,822,
550,818,
567,812,
580,807,
590,799,
593,791,
598,776,
605,763,
610,750,
611,736,
608,722,
606,704,
604,686,
606,672,
599,657,
591,638,
582,625,
576,608,
566,596,
561,585,
549,569,
532,555,
526,543,
520,533,
509,524,
494,512,
481,505,
468,493,
460,485,
451,476,
436,471,
422,465,
413,456,
406,449,
397,446,
383,438,
373,432,
364,424,
355,420,
350,416,
342,413,
327,407,
322,404,
313,400,
312,401,
303,402,
293,398,
281,399,
284,399,
282,403,
275,403,
269,407,
263,405,
263,412,
262,415,
262,419,
258,423,
256,428,
259,432,
261,440,
256,444,
255,448,
252,451,
256,457,
259,465,
260,468,
261,473,
257,473,
258,476,
263,482,
268,486,
268,489,
264,490,
270,492,
275,493,
279,496,
274,495,
279,496,
279,495,
286,497,
284,497,
288,496,
286,495,
289,492,
290,494,
295,492,
292,489,
289,488,
292,483,
295,482,
296,481,
297,480,
292,477,
293,474,
293,472,
295,471,
292,469,
291,466,
289,463,
289,461,
289,459,
290,456,
288,454,
284,452,
284,449,
288,450,
286,449,
281,447,
280,442,
275,441,
276,443,
276,442,
272,442,
267,437,
267,442,
266,439,
266,438,
260,440,
256,435,
259,437,
256,437,
257,439,
253,438,
250,438,
251,438,
252,439,
251,438,
248,441,
244,440,
248,440,
249,442,
242,440,
244,444,
241,444,
240,443,
244,446,
245,448,
239,449,
235,448,
239,450,
245,451,
242,453,
241,450,
239,451,
238,453,
245,455,
247,457,
247,457,
243,457,
244,456,
246,458,
245,460,
246,460,
241,461,
242,460,
247,462,
249,465,
248,464,
247,462,
245,464,
249,464,
251,464,
251,465,
250,464,
246,464,
250,464,
255,466,
255,466,
251,465,
250,466,
251,464,
257,468,
256,469,
253,471,
255,469,
259,473,
261,478,
263,483,
262,487,
265,493,
268,505,
276,514,
280,529,
283,542,
288,557,
295,573,
308,593,
317,610,
321,631,
332,650,
347,672,
363,692,
377,710,
392,729,
401,745,
423,757,
443,772,
459,780,
475,789,
484,795,
498,797,
520,800,
532,798,
538,794,
553,790,
564,782,
575,776,
582,761,
587,752,
589,739,
591,724,
597,712,
600,699,
598,684,
591,668,
589,651,
588,638,
585,623,
575,609,
565,594,
557,579,
548,569,
543,555,
532,542,
519,531,
508,517,
500,510,
491,501,
476,494,
462,486,
452,476,
438,468,
431,464,
420,457,
408,450,
397,441,
386,434,
379,432,
373,428,
357,425,
346,421,
342,417,
334,413,
324,410,
315,409,
307,404,
304,404,
300,408,
293,408,
285,409,
280,410,
278,413,
276,416,
272,418,
264,422,
260,425,
258,428,
261,435,
259,439,
255,444,
254,445,
256,451,
259,458,
260,464,
258,470,
261,472,
265,475,
268,481,
269,486,
268,488,
271,492,
272,493,
277,499,
281,501,
284,506,
281,503,
287,503,
290,506,
293,508,
294,508,
294,510,
298,508,
301,506,
304,505,
302,505,
304,505,
304,499,
308,499,
311,500,
312,499,
311,496,
311,490,
310,489,
313,487,
310,487,
307,484,
308,481,
305,478,
307,476,
305,475,
301,475,
301,470,
301,466,
296,465,
296,464,
293,463,
292,459,
292,457,
293,457,
290,455,
286,456,
285,455,
283,453,
283,452,
277,451,
277,452,
275,450,
277,449,
276,448,
272,450,
270,449,
269,448,
270,449,
271,449,
269,450,
267,449,
264,450,
263,448,
263,451,
264,452,
258,452,
261,452,
260,450,
263,454,
259,455,
258,457,
258,457,
258,454,
260,459,
259,461,
258,459,
255,460,
258,457,
259,459,
258,461,
255,463,
255,461,
256,462,
257,460,
253,462,
256,462,
251,462,
256,463,
254,462,
255,464,
254,466,
252,465,
255,465,
253,466,
258,467,
259,469,
256,470,
258,468,
257,466,
260,471,
262,478,
261,480,
261,483,
265,491,
269,498,
272,505,
272,516,
279,526,
285,539,
293,555,
299,570,
305,587,
315,605,
329,621,
343,639,
353,660,
364,679,
374,697,
397,711,
409,728,
424,743,
435,754,
447,762,
466,768,
482,775,
493,781,
503,781,
515,780,
528,776,
540,774,
545,767,
551,758,
557,750,
563,737,
564,726,
567,716,
569,703,
570,689,
568,673,
565,661,
565,645,
559,632,
551,616,
549,600,
544,588,
537,576,
527,563,
518,552,
510,537,
502,527,
491,518,
483,508,
471,499,
464,488,
452,479,
446,474,
433,467,
421,459,
412,451,
400,442,
395,441,
383,432,
372,427,
362,420,
354,419,
348,414,
333,411,
325,408,
316,407,
310,403,
308,401,
296,401,
289,403,
286,404,
287,406,
283,408,
278,412,
270,415,
267,422,
272,425,
271,426,
266,433,
264,439,
261,441,
260,447,
266,453,
264,459,
261,461,
261,467,
263,470,
266,474,
269,481,
266,484,
270,489,
272,489,
277,493,
280,497,
280,498,
280,500,
282,501,
286,503,
290,504,
290,506,
290,505,
292,504,
296,502,
300,502,
300,502,
297,503,
298,499,
302,497,
305,497,
305,494,
303,493,
299,490,
307,486,
309,487,
305,482,
302,482,
301,479,
301,477,
305,475,
304,474,
299,472,
289,470,
294,464,
295,465,
292,462,
289,462,
288,457,
291,461,
288,457,
285,456,
280,457,
277,453,
278,453,
280,449,
279,452,
271,452,
269,449,
270,451,
270,449,
268,450,
261,451,
258,449,
259,452,
260,449,
258,450,
254,453,
255,448,
255,453,
258,453,
259,453,
252,453,
248,452,
254,452,
259,455,
255,454,
255,453,
254,454,
253,454,
259,457,
260,456,
257,456,
252,458,
248,455,
255,457,
258,459,
255,458,
250,459,
250,458,
252,456,
259,458,
255,458,
255,458,
255,460,
256,460,
259,461,
258,463,
255,465,
255,464,
256,466,
261,469,
257,473,
255,476,
257,482,
258,489,
266,499,
268,508,
268,519,
276,530,
286,548,
293,560,
301,577,
306,597,
312,609,
332,633,
348,651,
357,671,
370,690,
384,708,
399,724,
420,741,
433,752,
442,765,
454,773,
475,782,
490,786,
498,788,
511,791,
522,789,
532,785,
548,781,
556,774,
561,767,
567,758,
573,748,
581,737,
583,725,
578,710,
580,699,
583,683,
583,670,
586,653,
577,644,
569,630,
564,616,
561,602,
554,590,
543,577,
531,567,
523,555,
512,544,
506,536,
491,526,
478,515,
466,509,
457,499,
452,493,
439,486,
429,480,
419,470,
408,466,
405,460,
397,453,
376,447,
372,442,
362,435,
360,432,
351,430,
338,424,
330,421,
327,416,
321,417,
313,414,
303,414,
292,414,
294,416,
290,414,
284,416,
279,418,
271,419,
269,424,
268,427,
270,432,
262,434,
258,438,
261,447,
260,448,
259,453,
261,457,
256,458,
258,466,
265,469,
260,476,
261,478,
261,481,
266,483,
274,488,
274,492,
271,494,
273,496,
276,499,
281,500,
284,503,
283,502,
283,504,
286,504,
293,505,
295,504,
297,504,
294,502,
296,501,
300,501,
302,500,
301,498,
298,495,
299,494,
306,491,
308,492,
309,488,
305,484,
302,484,
309,481,
309,480,
306,475,
304,474,
297,472,
301,468,
304,470,
302,466,
295,464,
295,463,
291,459,
296,457,
291,459,
285,456,
286,453,
287,456,
285,452,
285,451,
278,451,
276,449,
272,449,
276,448,
270,447,
268,448,
265,446,
268,447,
272,448,
270,448,
268,448,
259,447,
263,449,
267,451,
264,449,
258,451,
256,450,
258,448,
264,451,
258,449,
258,450,
257,450,
261,451,
264,453,
263,450,
258,449,
259,452,
263,451,
264,452,
266,453,
261,454,
259,455,
257,453,
262,452,
261,453,
257,453,
253,455,
254,452,
257,454,
258,453,
255,455,
253,457,
251,459,
259,456,
259,458,
255,463,
256,469,
255,471,
258,474,
263,480,
264,488,
260,498,
268,509,
271,519,
280,536,
285,550,
289,567,
299,585,
315,603,
326,623,
341,646,
350,665,
358,685,
381,705,
397,721,
413,737,
422,753,
437,764,
454,775,
473,783,
487,792,
500,795,
503,797,
528,798,
537,793,
546,790,
553,785,
560,777,
567,769,
575,760,
577,749,
578,737,
579,724,
580,711,
585,697,
583,682,
574,668,
568,653,
565,638,
566,628,
553,617,
549,599,
540,588,
529,575,
526,563,
520,554,
507,544,
495,534,
484,524,
479,515,
470,511,
457,500,
444,492,
439,485,
429,479,
422,473,
411,465,
398,459,
387,455,
381,446,
376,442,
363,436,
354,431,
343,425,
336,422,
334,420,
329,418,
314,417,
307,412,
301,411,
300,412,
294,413,
285,414,
280,417,
281,419,
278,421,
271,425,
266,426,
266,429,
264,433,
267,436,
265,442,
261,446,
255,449,
258,456,
262,460,
261,465,
258,471,
256,474,
262,478,
272,482,
273,488,
271,491,
272,494,
275,494,
283,498,
285,498,
283,502,
286,505,
290,504,
295,505,
297,508,
295,504,
297,508,
300,505,
304,507,
309,505,
306,502,
304,501,
307,497,
311,498,
313,495,
306,494,
304,492,
303,489,
308,487,
309,484,
306,480,
303,478,
304,474,
302,471,
305,470,
304,468,
297,467,
294,464,
293,459,
293,459,
288,457,
284,454,
282,453,
279,449,
283,450,
282,450,
275,449,
268,447,
278,445,
272,447,
270,448,
270,447,
263,445,
271,447,
270,443,
266,445,
261,444,
258,446,
259,445,
258,446,
258,449,
256,447,
251,448,
254,447,
257,448,
254,449,
256,448,
251,449,
256,449,
257,450,
257,450,
257,451,
253,449,
253,451,
255,454,
255,454,
249,452,
250,454,
251,452,
253,454,
257,455,
250,455,
250,456,
247,454,
250,457,
251,456,
249,457,
248,459,
246,456,
251,456,
250,458,
250,459,
248,463,
249,460,
249,462,
251,465,
251,468,
254,474,
255,476,
258,482,
263,491,
268,501,
267,511,
274,521,
283,536,
291,552,
297,573,
305,591,
314,610,
327,626,
341,650,
356,670,
368,690,
379,709,
398,729,
411,745,
428,759,
440,773,
456,780,
473,793,
489,796,
502,801,
514,802,
527,799,
542,797,
554,794,
562,787,
566,780,
572,767,
577,762,
582,746,
584,734,
583,721,
580,706,
581,689,
581,675,
578,663,
569,648,
565,632,
560,618,
554,605,
546,593,
535,579,
526,569,
515,555,
511,544,
502,534,
491,529,
480,518,
469,507,
464,499,
453,493,
442,486,
426,479,
420,470,
408,461,
396,456,
387,451,
375,444,
366,438,
358,433,
349,429,
339,425,
327,421,
324,416,
318,414,
313,414,
305,412,
298,411,
294,412,
285,412,
283,415,
278,417,
272,421,
270,425,
269,426,
267,431,
268,437,
261,441,
260,445,
266,451,
262,455,
262,460,
262,466,
260,469,
264,473,
266,476,
269,481,
268,487,
269,488,
274,493,
277,495,
281,500,
282,502,
284,503,
287,504,
293,504,
295,507,
296,506,
298,507,
301,506,
307,507,
308,505,
303,503,
308,502,
310,498,
314,498,
310,498,
314,496,
311,493,
313,489,
313,487,
317,489,
313,486,
313,482,
312,478,
316,477,
306,476,
309,473,
303,468,
302,466,
301,463,
299,464,
300,462,
294,461,
294,457,
293,455,
293,453,
289,454,
286,451,
281,451,
282,449,
284,450,
282,451,
276,448,
277,451,
274,444,
276,449,
275,449,
273,449,
272,446,
273,447,
273,446,
270,448,
268,446,
269,445,
267,445,
268,448,
267,447,
264,447,
264,447,
264,445,
265,446,
262,447,
263,447,
256,446,
258,446,
259,446,
258,448,
255,448,
255,449,
256,446,
255,448,
255,450,
250,450,
250,449,
251,451,
255,452,
253,456,
253,454,
247,459,
254,461,
257,466,
258,475,
259,481,
261,489,
265,499,
271,510,
278,526,
281,540,
288,559,
295,573,
306,593,
318,617,
333,637,
342,659,
353,679,
369,698,
384,720,
399,741,
410,754,
431,767,
446,781,
464,793,
474,803,
486,807,
505,810,
520,808,
534,812,
543,810,
555,806,
560,800,
571,793,
580,784,
582,773,
587,762,
588,748,
591,737,
592,724,
590,710,
587,697,
583,683,
580,666,
574,655,
569,641,
561,629,
555,615,
553,601,
543,590,
535,580,
522,569,
513,560,
505,547,
499,541,
488,531,
475,524,
469,516,
459,504,
450,501,
441,491,
432,483,
423,477,
415,469,
407,462,
398,455,
388,449,
377,444,
367,436,
361,433,
353,427,
344,427,
333,418,
326,417,
320,415,
312,415,
304,415,
297,414,
291,413,
288,414,
285,416,
281,421,
277,425,
272,426,
272,428,
271,432,
267,439,
264,445,
264,449,
263,452,
263,461,
264,464,
262,469,
267,473,
269,476,
273,483,
274,489,
275,492,
281,490,
283,498,
287,499,
286,502,
290,503,
292,501,
294,506,
298,503,
299,504,
302,506,
303,501,
306,503,
309,499,
309,500,
313,500,
304,496,
309,495,
313,492,
310,492,
310,488,
308,483,
310,482,
310,478,
311,477,
304,474,
305,472,
305,468,
308,463,
305,463,
300,459,
297,459,
295,453,
297,452,
294,451,
290,448,
289,446,
286,444,
286,444,
286,443,
280,441,
279,439,
277,438,
277,436,
278,437,
272,436,
270,434,
268,433,
266,433,
265,434,
263,434,
258,433,
262,433,
259,434,
259,434,
255,436,
252,433,
254,435,
250,432,
250,433,
250,437,
248,438,
243,439,
250,440,
249,442,
246,442,
244,444,
243,444,
246,445,
248,447,
243,449,
245,450,
245,452,
248,452,
246,454,
251,455,
248,459,
247,458,
251,459,
250,461,
253,461,
250,463,
251,463,
252,462,
256,462,
254,465,
255,464,
254,465,
255,463,
256,463,
259,465,
256,464,
258,464,
262,463,
264,464,
265,465,
264,465,
264,466,
263,465,
267,464,
269,465,
267,468,
264,466,
268,463,
269,463,
271,467,
268,468,
269,469,
271,472,
271,477,
275,485,
273,493,
277,502,
279,511,
285,523,
292,541,
297,560,
303,577,
311,596,
317,616,
335,641,
345,665,
357,689,
373,713,
391,733,
408,755,
423,775,
442,796,
457,810,
476,822,
493,828,
510,841,
527,845,
541,844,
556,848,
570,847,
584,847,
593,842,
602,833,
613,824,
623,815,
623,801,
630,789,
632,775,
635,762,
637,747,
636,733,
631,720,
628,702,
623,685,
621,672,
613,658,
602,645,
595,632,
588,617,
580,604,
573,595,
560,582,
548,572,
538,562,
528,553,
519,545,
505,538,
493,529,
482,520,
469,514,
465,510,
449,501,
440,496,
431,487,
423,479,
416,475,
404,470,
393,465,
385,458,
378,451,
368,447,
365,444,
347,441,
345,436,
334,431,
333,431,
322,428,
314,429,
309,423,
303,424,
300,428,
294,430,
291,433,
279,433,
285,438,
278,440,
280,446,
273,448,
275,450,
275,455,
272,461,
274,466,
271,471,
274,473,
277,477,
280,483,
281,488,
281,491,
283,494,
288,497,
293,500,
296,501,
295,506,
293,506,
300,506,
304,509,
305,509,
306,510,
307,509,
312,509,
313,507,
316,505,
314,502,
312,502,
312,497,
318,496,
312,494,
315,491,
313,488,
313,485,
315,482,
316,477,
312,475,
311,470,
311,468,
310,463,
311,464,
308,459,
301,457,
303,451,
303,448,
299,446,
297,444,
289,443,
287,440,
287,437,
287,436,
283,434,
280,433,
277,429,
274,424,
275,426,
271,427,
265,426,
266,426,
268,422,
264,424,
262,423,
259,424,
260,425,
257,425,
257,424,
254,422,
251,426,
246,423,
252,425,
250,428,
247,427,
245,428,
243,428,
243,429,
243,432,
241,431,
241,434,
238,434,
240,434,
241,434,
235,437,
236,437,
236,436,
237,437,
240,441,
242,442,
237,442,
239,444,
241,442,
246,444,
249,446,
248,447,
248,450,
246,450,
253,450,
254,454,
255,453,
250,453,
253,454,
251,455,
254,458,
254,457,
254,458,
252,460,
256,459,
260,460,
261,462,
262,462,
261,462,
263,462,
266,463,
265,464,
265,463,
265,461,
263,461,
271,464,
271,464,
270,464,
272,465,
270,459,
273,461,
273,463,
270,461,
268,461,
272,463,
267,463,
272,462,
270,462,
270,461,
271,464,
273,465,
273,468,
270,470,
271,470,
274,478,
277,482,
278,492,
280,503,
282,515,
287,528,
296,543,
300,560,
305,580,
314,601,
324,622,
338,644,
352,669,
361,694,
376,715,
392,738,
406,757,
424,775,
439,791,
454,808,
471,818,
489,827,
506,834,
519,841,
527,843,
547,840,
563,839,
574,838,
582,830,
590,824,
595,812,
608,801,
614,791,
617,778,
616,765,
619,750,
619,734,
620,719,
613,706,
608,691,
604,675,
599,661,
594,647,
584,634,
574,618,
568,607,
557,594,
553,583,
541,574,
533,564,
522,554,
515,545,
506,536,
498,528,
483,520,
472,515,
466,505,
458,498,
446,490,
435,486,
424,477,
415,470,
409,466,
398,461,
390,454,
376,448,
371,443,
364,438,
358,433,
347,433,
338,427,
331,422,
329,422,
319,422,
314,420,
309,422,
303,421,
302,424,
299,425,
289,427,
288,431,
284,432,
285,438,
286,444,
280,447,
279,452,
275,456,
282,460,
280,467,
280,470,
278,475,
284,477,
283,481,
287,487,
288,491,
286,494,
291,497,
292,498,
291,501,
295,502,
297,502,
300,504,
303,503,
306,505,
308,506,
306,505,
309,502,
309,500,
312,500,
318,499,
314,496,
315,493,
319,489,
314,490,
316,485,
316,484,
315,477,
315,477,
315,474,
315,472,
312,468,
306,461,
309,459,
306,457,
303,454,
301,454,
299,451,
300,448,
295,444,
294,441,
291,440,
290,437,
290,437,
287,432,
287,432,
277,430,
274,429,
275,427,
273,427,
272,427,
263,425,
265,427,
263,424,
264,422,
262,420,
261,424,
253,423,
258,422,
258,425,
258,424,
254,427,
251,426,
250,424,
249,425,
249,428,
250,428,
244,429,
246,430,
245,430,
243,435,
247,433,
241,433,
242,435,
240,436,
243,438,
240,439,
240,439,
239,438,
240,440,
244,442,
244,446,
242,445,
242,445,
243,444,
244,446,
246,449,
246,449,
247,451,
249,452,
248,453,
247,451,
250,455,
247,454,
247,454,
252,454,
251,459,
250,459,
248,459,
250,458,
254,459,
250,460,
252,461,
252,461,
255,461,
259,460,
259,459,
256,462,
256,462,
257,460,
259,461,
263,461,
259,461,
259,459,
261,463,
265,462,
265,460,
263,459,
261,462,
262,460,
264,459,
261,463,
265,465,
263,463,
263,462,
266,462,
262,468,
267,466,
262,468,
270,468,
271,472,
275,479,
274,485,
275,492,
279,501,
284,509,
289,524,
292,539,
297,556,
305,571,
313,591,
325,612,
332,635,
342,657,
357,678,
371,695,
388,720,
400,739,
415,758,
431,774,
450,788,
467,799,
481,809,
494,816,
507,820,
520,818,
537,820,
547,816,
553,813,
566,805,
574,795,
581,786,
582,777,
587,763,
592,751,
595,734,
598,722,
594,707,
592,691,
588,675,
584,658,
584,645,
574,631,
564,616,
557,603,
551,589,
544,576,
535,563,
522,551,
512,543,
503,535,
494,525,
484,516,
471,509,
458,498,
448,493,
440,486,
431,479,
419,471,
408,466,
397,457,
390,450,
380,445,
369,441,
360,435,
346,430,
343,425,
334,423,
326,419,
320,418,
313,415,
307,416,
305,413,
299,415,
291,416,
288,419,
284,419,
285,423,
281,431,
278,432,
277,437,
281,440,
277,444,
278,454,
277,459,
272,462,
280,470,
285,475,
284,479,
284,486,
285,490,
288,492,
292,497,
294,499,
294,504,
294,505,
297,507,
301,511,
303,513,
304,516,
305,511,
306,513,
309,511,
310,512,
314,512,
309,511,
313,506,
313,506,
318,503,
314,502,
316,498,
319,495,
317,494,
312,495,
316,489,
316,486,
313,482,
314,480,
315,475,
313,474,
312,471,
308,467,
309,463,
309,463,
308,461,
299,459,
300,455,
299,452,
298,454,
297,449,
295,449,
292,446,
291,444,
291,443,
287,441,
285,441,
284,438,
282,437,
282,438,
280,437,
276,436,
275,436,
274,432,
275,436,
272,434,
267,438,
265,434,
267,438,
266,436,
263,437,
259,436,
256,435,
257,436,
256,435,
255,440,
253,440,
252,437,
253,441,
254,442,
251,444,
252,445,
245,444,
250,444,
247,445,
248,446,
246,450,
246,449,
247,448,
252,452,
253,453,
249,454,
252,453,
251,454,
255,457,
255,457,
253,454,
252,455,
253,456,
256,457,
262,459,
257,460,
256,458,
255,458,
259,458,
259,461,
257,460,
259,461,
259,460,
266,459,
266,458,
263,463,
263,462,
265,461,
265,460,
265,462,
266,463,
265,462,
264,464,
266,463,
268,466,
268,468,
268,472,
268,474,
267,478,
273,488,
272,498,
275,506,
278,516,
286,530,
292,546,
295,561,
304,583,
315,601,
326,621,
334,642,
348,665,
359,687,
373,705,
389,726,
406,747,
420,764,
437,782,
450,793,
470,804,
486,812,
504,819,
517,827,
532,828,
548,825,
566,825,
577,822,
582,816,
594,809,
602,797,
612,789,
616,779,
617,763,
622,751,
626,736,
623,724,
621,709,
618,695,
610,681,
610,668,
605,652,
595,639,
588,628,
576,615,
570,599,
561,589,
554,579,
538,570,
528,556,
521,549,
510,540,
503,534,
490,526,
479,519,
467,509,
458,503,
452,497,
437,491,
426,484,
418,477,
406,471,
402,466,
391,460,
383,457,
372,452,
369,445,
361,443,
350,442,
346,440,
339,437,
337,440,
328,438,
326,442,
322,444,
314,447,
313,449,
311,454,
311,459,
308,467,
308,469,
307,477,
309,486,
308,492,
306,500,
306,507,
310,514,
310,522,
311,528,
314,535,
316,540,
320,546,
327,549,
331,556,
330,560,
330,563,
335,562,
344,568,
348,566,
348,567,
351,568,
355,565,
356,565,
360,563,
362,560,
365,558,
364,551,
367,547,
369,547,
373,543,
369,539,
367,534,
369,528,
370,524,
368,519,
364,515,
364,509,
362,503,
361,501,
360,499,
358,495,
358,490,
356,487,
351,484,
349,485,
344,481,
344,480,
340,475,
339,476,
337,475,
334,476,
329,472,
332,471,
327,468,
326,470,
323,468,
319,465,
315,464,
317,465,
316,463,
310,461,
308,460,
307,455,
306,452,
304,451,
297,449,
296,447,
295,444,
294,440,
293,437,
288,436,
281,431,
285,429,
285,426,
281,423,
276,423,
269,420,
271,416,
272,417,
270,414,
264,411,
262,412,
260,410,
258,409,
254,412,
252,411,
247,411,
247,409,
250,409,
249,410,
250,413,
241,415,
241,414,
246,414,
245,417,
244,417,
238,420,
240,420,
241,422,
242,426,
240,427,
237,430,
240,431,
238,433,
243,436,
241,437,
237,435,
240,441,
238,440,
245,445,
241,445,
242,449,
245,448,
247,451,
242,453,
244,454,
246,458,
243,456,
251,459,
249,461,
251,463,
252,463,
251,463,
251,463,
252,463,
254,466,
257,467,
257,466,
258,467,
261,465,
256,467,
258,466,
257,464,
260,463,
263,464,
260,464,
262,462,
262,460,
263,458,
264,457,
265,458,
261,457,
263,458,
266,456,
267,458,
266,458,
265,462,
265,467,
267,470,
269,476,
277,485,
274,499,
276,513,
284,526,
291,543,
296,565,
303,587,
314,609,
325,630,
339,656,
354,683,
365,706,
380,727,
396,747,
414,768,
435,788,
448,804,
463,816,
487,826,
503,833,
523,843,
538,846,
553,847,
566,845,
581,839,
594,838,
604,830,
611,821,
619,808,
624,798,
630,785,
630,771,
630,759,
633,741,
630,724,
627,709,
623,690,
616,674,
609,659,
608,644,
599,631,
589,613,
578,602,
568,585,
559,576,
546,565,
539,553,
525,543,
509,534,
503,525,
495,517,
485,509,
469,504,
456,498,
448,491,
439,485,
432,479,
421,475,
411,470,
401,461,
394,458,
384,456,
377,452,
368,446,
360,442,
356,439,
350,438,
341,438,
334,437,
324,434,
325,434,
317,437,
313,439,
311,443,
305,443,
304,445,
304,451,
299,455,
298,460,
292,461,
295,464,
298,472,
294,476,
292,478,
291,484,
294,483,
294,490,
297,494,
294,500,
298,501,
303,503,
303,505,
307,507,
302,511,
306,508,
313,512,
314,514,
316,515,
315,514,
316,512,
318,513,
324,514,
325,517,
323,515,
324,513,
327,513,
329,509,
330,509,
328,507,
328,503,
330,502,
330,497,
332,496,
326,492,
327,490,
327,486,
330,482,
325,479,
322,472,
321,471,
321,465,
323,462,
321,456,
318,455,
311,451,
313,447,
311,443,
309,440,
305,437,
299,432,
299,430,
302,427,
297,428,
293,426,
289,422,
288,418,
285,418,
285,417,
280,418,
277,415,
273,413,
271,412,
270,414,
266,413,
262,415,
258,414,
257,411,
258,415,
258,420,
255,419,
255,418,
256,417,
255,421,
248,425,
246,425,
246,426,
247,428,
249,431,
251,433,
248,434,
245,435,
246,436,
248,438,
248,440,
246,441,
245,442,
247,444,
248,447,
248,449,
247,451,
248,450,
246,452,
250,452,
252,456,
248,456,
251,456,
252,455,
252,458,
249,460,
252,459,
249,460,
257,459,
258,458,
259,461,
258,463,
259,462,
260,459,
263,460,
263,457,
262,462,
262,457,
265,456,
268,457,
265,457,
265,457,
261,456,
262,454,
266,453,
265,453,
268,453,
260,454,
261,451,
264,452,
263,452,
262,451,
257,449,
261,450,
261,449,
263,452,
264,455,
262,456,
265,457,
267,463,
267,471,
269,479,
270,487,
272,496,
281,509,
286,522,
288,540,
296,557,
306,576,
314,595,
326,618,
336,639,
347,661,
359,683,
375,702,
386,720,
405,740,
418,755,
432,767,
445,777,
460,789,
477,795,
487,799,
501,801,
516,798,
530,798,
538,794,
546,790,
553,778,
565,769,
568,757,
574,746,
574,735,
575,720,
575,702,
574,689,
567,675,
569,658,
562,644,
557,626,
555,611,
547,597,
538,585,
526,572,
516,557,
508,548,
502,535,
490,524,
480,511,
468,503,
459,495,
451,489,
440,481,
428,476,
420,466,
410,459,
402,455,
393,449,
381,440,
372,437,
365,427,
358,423,
346,421,
337,416,
332,412,
327,410,
319,406,
309,402,
305,403,
293,399,
291,401,
285,403,
284,405,
281,408,
275,406,
270,410,
270,414,
263,418,
263,425,
259,424,
261,430,
260,435,
261,442,
259,446,
259,448,
260,454,
266,461,
267,468,
267,473,
269,477,
273,479,
279,484,
279,491,
281,489,
279,496,
284,495,
289,497,
293,505,
295,503,
299,503,
300,506,
303,504,
307,506,
305,506,
307,505,
309,503,
310,503,
314,501,
309,500,
310,495,
311,496,
311,491,
311,490,
308,487,
306,484,
306,481,
308,477,
307,476,
305,474,
303,470,
306,468,
300,462,
303,463,
299,460,
296,456,
297,451,
296,452,
294,451,
290,449,
286,445,
285,442,
284,441,
282,441,
279,439,
276,438,
273,431,
271,436,
273,434,
270,433,
266,433,
263,432,
265,432,
262,430,
257,431,
258,430,
257,430,
258,429,
256,431,
257,432,
256,432,
251,432,
251,430,
252,433,
252,435,
247,432,
243,436,
244,436,
247,435,
246,438,
245,438,
244,437,
243,436,
245,438,
245,441,
246,445,
242,442,
244,445,
243,444,
247,447,
241,447,
241,448,
240,450,
239,448,
241,453,
238,452,
234,454,
238,453,
239,452,
238,455,
239,456,
237,455,
239,454,
242,453,
238,456,
243,456,
241,458,
245,456,
247,455,
249,460,
244,459,
246,461,
246,456,
249,460,
251,459,
249,458,
249,459,
250,458,
253,458,
255,458,
256,459,
254,462,
254,461,
256,463,
260,463,
260,465,
257,467,
257,466,
262,469,
262,470,
265,476,
263,484,
266,488,
267,496,
275,508,
279,520,
280,531,
288,547,
298,561,
309,579,
320,597,
329,618,
339,637,
352,657,
366,676,
381,697,
398,716,
407,733,
423,747,
440,761,
455,770,
468,783,
478,786,
494,792,
512,792,
522,796,
534,792,
542,790,
549,782,
562,775,
570,766,
574,757,
578,747,
581,733,
582,719,
588,707,
584,693,
584,678,
576,662,
578,646,
573,633,
565,619,
557,608,
549,588,
544,579,
535,565,
521,554,
515,543,
506,531,
495,521,
486,511,
475,504,
464,499,
448,490,
446,481,
436,475,
423,470,
415,465,
406,457,
401,451,
389,447,
381,442,
374,436,
362,432,
356,426,
347,422,
344,422,
331,416,
324,413,
315,411,
312,411,
308,411,
297,409,
289,411,
286,409,
284,411,
276,410,
274,418,
270,421,
268,421,
267,425,
266,430,
263,435,
259,440,
264,441,
266,447,
265,453,
263,458,
260,462,
264,467,
269,469,
270,473,
270,481,
270,482,
273,485,
276,489,
280,494,
282,498,
278,497,
286,499,
285,498,
285,502,
291,502,
290,506,
292,502,
298,505,
295,503,
302,503,
300,502,
299,501,
303,499,
307,497,
306,496,
306,495,
305,491,
306,487,
310,486,
307,483,
308,482,
304,479,
305,476,
307,475,
306,471,
302,469,
301,466,
300,463,
300,461,
301,462,
294,459,
294,457,
291,455,
291,453,
288,453,
283,449,
281,449,
282,447,
279,445,
277,445,
272,445,
269,443,
266,440,
270,440,
264,441,
261,441,
255,441,
256,439,
255,439,
258,440,
253,440,
249,439,
250,439,
252,438,
248,441,
252,441,
247,441,
246,440,
244,441,
243,445,
243,444,
243,446,
244,445,
244,444,
240,447,
249,449,
243,450,
244,449,
246,452,
248,452,
246,453,
244,453,
245,451,
245,455,
243,457,
244,458,
243,460,
241,458,
247,457,
249,459,
245,462,
248,463,
247,461,
250,461,
252,459,
253,462,
252,463,
247,462,
250,462,
256,464,
254,462,
254,463,
252,463,
253,462,
258,464,
258,466,
257,463,
257,464,
258,465,
260,466,
261,467,
260,467,
259,469,
261,472,
263,477,
263,482,
264,488,
264,495,
269,504,
277,513,
279,525,
283,538,
286,552,
292,565,
303,583,
314,599,
325,617,
331,635,
343,651,
358,669,
374,689,
386,705,
396,719,
413,734,
426,742,
445,755,
460,763,
468,766,
478,771,
496,771,
511,771,
521,768,
528,764,
536,756,
543,750,
548,742,
553,730,
559,721,
556,709,
562,694,
566,682,
563,670,
563,655,
553,638,
552,628,
550,612,
543,600,
536,588,
529,574,
523,563,
516,550,
508,541,
496,533,
486,523,
477,512,
466,503,
461,497,
446,489,
439,483,
432,479,
423,469,
413,465,
404,460,
394,453,
385,447,
379,442,
371,439,
363,434,
354,428,
347,426,
341,423,
334,420,
325,418,
318,415,
312,413,
307,413,
301,414,
291,415,
287,415,
281,415,
278,417,
276,422,
268,427,
266,427,
266,430,
262,434,
265,440,
264,445,
258,451,
263,452,
263,456,
262,464,
263,470,
264,473,
264,474,
267,481,
269,482,
274,492,
272,493,
271,497,
279,497,
284,502,
284,505,
286,505,
287,506,
291,508,
296,508,
296,510,
294,510,
298,508,
297,505,
300,505,
300,505,
299,505,
300,501,
301,497,
302,496,
301,495,
298,493,
301,488,
301,487,
302,485,
299,486,
299,481,
296,478,
295,476,
300,475,
297,473,
299,470,
295,466,
295,465,
296,465,
294,462,
291,461,
289,458,
287,458,
286,455,
286,454,
285,453,
279,451,
277,451,
277,450,
276,447,
278,448,
271,450,
265,447,
267,446,
269,449,
266,448,
263,446,
264,444,
262,444,
264,449,
259,447,
256,447,
256,446,
256,449,
256,447,
256,450,
252,452,
252,450,
253,449,
254,451,
251,452,
251,451,
253,451,
252,451,
253,453,
252,452,
250,453,
249,453,
251,455,
251,455,
254,456,
250,456,
251,457,
254,455,
252,456,
253,459,
249,459,
252,460,
251,458,
256,458,
253,465,
252,460,
253,461,
255,458,
257,462,
259,461,
257,462,
251,464,
254,464,
254,461,
255,466,
254,468,
253,470,
256,472,
257,471,
258,478,
259,480,
259,485,
263,491,
267,499,
271,507,
273,520,
273,532,
282,544,
284,555,
295,573,
304,590,
313,606,
320,623,
330,637,
345,657,
359,675,
369,690,
383,707,
400,720,
416,731,
425,744,
443,751,
454,757,
468,762,
482,765,
490,765,
501,766,
511,763,
524,759,
532,753,
537,745,
541,737,
543,726,
551,717,
550,705,
556,693,
554,682,
553,667,
552,656,
546,641,
547,629,
539,617,
535,605,
529,591,
525,581,
519,567,
510,558,
499,549,
494,537,
486,530,
480,523,
469,516,
460,508,
452,502,
440,495,
435,489,
427,485,
411,479,
406,473,
395,469,
391,464,
384,461,
373,454,
365,451,
359,443,
349,441,
340,438,
333,435,
327,430,
321,426,
319,424,
310,425,
302,422,
299,423,
295,420,
294,424,
287,425,
282,427,
275,426,
278,430,
274,434,
273,434,
269,440,
267,441,
267,446,
262,451,
267,454,
269,460,
265,463,
273,467,
273,472,
273,476,
273,479,
274,481,
281,485,
285,490,
284,492,
287,495,
286,496,
286,497,
293,500,
293,501,
289,502,
294,502,
293,500,
297,501,
297,502,
297,498,
296,501,
298,498,
298,497,
299,495,
299,495,
297,491,
298,490,
301,488,
301,488,
299,485,
297,483,
299,482,
300,478,
298,477,
296,478,
297,472,
295,470,
294,467,
294,467,
290,469,
289,466,
290,462,
289,458,
291,461,
290,458,
283,456,
285,453,
282,451,
284,451,
282,452,
279,452,
280,449,
280,450,
277,449,
274,449,
273,448,
266,447,
268,448,
269,449,
265,450,
261,448,
258,450,
256,449,
254,448,
257,446,
253,449,
250,448,
253,448,
250,447,
251,450,
250,452,
249,450,
248,452,
247,453,
249,454,
247,454,
246,454,
247,453,
245,454,
246,456,
244,454,
244,458,
246,455,
246,458,
249,460,
248,461,
243,461,
245,462,
250,462,
251,464,
250,466,
251,466,
251,466,
250,466,
254,469,
254,469,
254,469,
255,470,
257,468,
258,470,
256,471,
254,471,
257,471,
258,469,
261,473,
264,473,
262,470,
261,471,
260,470,
263,473,
261,473,
262,473,
261,471,
264,472,
262,474,
263,473,
262,473,
258,475,
264,474,
263,475,
267,479,
262,479,
264,481,
266,487,
269,491,
271,494,
272,503,
276,509,
281,519,
287,533,
292,545,
299,557,
304,573,
310,586,
325,602,
334,622,
342,637,
355,652,
367,666,
380,685,
388,700,
402,711,
413,724,
430,734,
445,744,
461,751,
473,757,
480,758,
493,759,
504,757,
510,756,
521,754,
526,747,
535,741,
540,734,
545,727,
549,717,
548,705,
551,692,
552,681,
552,671,
548,661,
547,648,
540,631,
539,620,
538,611,
531,598,
523,588,
518,577,
510,565,
505,559,
494,551,
491,541,
478,532,
475,522,
465,519,
457,512,
444,507,
437,501,
430,496,
422,491,
416,486,
402,482,
396,473,
389,469,
381,463,
376,461,
367,455,
359,452,
354,449,
350,446,
338,443,
334,439,
327,438,
322,434,
322,434,
315,433,
308,431,
303,431,
298,430,
295,432,
292,435,
284,434,
282,438,
280,440,
280,442,
278,445,
277,449,
275,450,
270,455,
275,459,
274,465,
277,469,
269,472,
272,475,
277,478,
279,483,
277,485,
277,489,
281,492,
282,492,
288,495,
285,498,
287,498,
287,501,
291,502,
297,503,
296,504,
298,505,
301,501,
302,502,
308,505,
309,503,
305,501,
306,501,
310,499,
310,499,
309,497,
303,496,
306,493,
307,491,
308,486,
303,487,
307,486,
300,483,
304,481,
305,480,
303,476,
300,474,
299,473,
299,470,
298,469,
295,466,
290,467,
286,464,
289,462,
286,461,
280,460,
283,457,
279,457,
280,453,
278,453,
276,453,
271,450,
271,450,
271,449,
270,449,
268,447,
267,450,
266,450,
265,448,
266,447,
264,444,
259,450,
257,446,
260,446,
257,446,
258,449,
256,449,
257,452,
255,448,
254,449,
252,452,
253,453,
254,454,
248,453,
253,453,
255,455,
252,457,
251,455,
254,455,
255,456,
257,460,
256,459,
255,461,
258,462,
259,461,
261,464,
262,464,
258,467,
262,463,
264,467,
266,465,
267,470,
264,469,
264,467,
266,468,
267,473,
269,470,
268,472,
264,474,
268,471,
265,474,
268,474,
270,474,
263,473,
265,473,
267,475,
266,473,
264,473,
265,474,
264,473,
271,475,
267,475,
264,472,
262,474,
266,471,
270,473,
266,475,
266,475,
264,474,
269,472,
267,475,
267,476,
266,478,
266,480,
267,480,
269,485,
272,490,
272,495,
273,501,
278,508,
282,516,
286,528,
289,538,
293,551,
299,563,
306,576,
312,591,
322,608,
330,622,
342,636,
351,651,
365,666,
375,682,
384,694,
395,705,
412,714,
425,726,
438,734,
445,739,
459,741,
472,743,
480,744,
489,743,
497,741,
505,735,
511,727,
517,722,
523,715,
524,705,
529,693,
533,683,
532,672,
530,664,
528,652,
527,640,
526,628,
524,616,
518,605,
512,595,
504,582,
507,572,
497,564,
494,555,
483,544,
476,536,
470,529,
462,522,
458,514,
449,508,
442,502,
436,495,
430,490,
422,487,
413,480,
407,476,
401,468,
393,466,
382,459,
379,457,
367,451,
367,448,
359,444,
352,443,
345,441,
336,438,
330,436,
324,433,
320,432,
313,434,
303,435,
304,435,
298,435,
297,438,
291,439,
290,441,
285,444,
280,443,
280,449,
279,454,
277,459,
274,462,
278,466,
275,467,
275,470,
277,475,
275,476,
276,484,
276,487,
277,489,
280,495,
281,496,
284,498,
288,503,
289,504,
292,505,
290,506,
292,508,
295,509,
299,509,
300,508,
301,508,
302,507,
308,507,
308,507,
308,506,
308,507,
311,504,
314,504,
316,504,
313,501,
314,500,
313,496,
315,495,
317,492,
314,492,
314,489,
309,485,
314,483,
312,483,
308,481,
308,480,
306,476,
307,474,
305,475,
303,472,
300,470,
301,468,
297,465,
298,463,
295,466,
290,463,
290,461,
288,458,
288,458,
288,456,
285,458,
282,456,
278,453,
281,456,
277,456,
279,457,
276,455,
273,455,
274,454,
273,457,
269,454,
261,455,
267,454,
265,455,
269,458,
263,457,
264,455,
267,455,
267,458,
265,459,
263,461,
262,459,
266,458,
266,459,
263,462,
266,462,
267,464,
266,461,
268,464,
265,467,
265,466,
267,466,
265,467,
266,466,
264,469,
265,468,
263,470,
263,467,
265,468,
266,471,
265,472,
264,472,
263,470,
265,470,
266,472,
265,472,
263,473,
264,472,
265,470,
260,472,
262,473,
257,473,
261,473,
263,470,
266,472,
268,473,
265,474,
268,472,
269,475,
270,478,
270,480,
269,484,
273,486,
273,488,
278,497,
279,504,
281,511,
281,520,
290,530,
291,543,
301,556,
304,568,
314,580,
319,596,
327,610,
339,629,
349,643,
358,656,
373,670,
388,684,
399,696,
408,707,
420,714,
437,720,
446,728,
458,732,
463,736,
472,737,
483,734,
491,732,
501,727,
505,724,
510,716,
517,709,
520,700,
524,692,
526,681,
521,670,
525,658,
526,647,
519,636,
518,625,
512,613,
514,602,
508,589,
503,578,
496,568,
488,559,
483,547,
476,537,
465,531,
461,523,
455,516,
449,506,
442,498,
436,492,
427,486,
420,479,
413,473,
408,467,
399,462,
390,456,
383,452,
375,448,
368,441,
358,441,
355,438,
345,436,
338,429,
335,428,
326,427,
320,427,
311,427,
304,426,
303,425,
296,428,
293,431,
292,434,
288,436,
284,436,
283,442,
280,445,
279,448,
275,450,
275,456,
278,460,
278,466,
275,471,
278,474,
283,476,
283,480,
282,486,
280,488,
283,491,
287,495,
288,500,
290,500,
289,503,
290,506,
292,505,
297,506,
296,512,
299,511,
296,510,
300,508,
306,511,
307,509,
306,513,
307,510,
307,506,
308,509,
309,507,
310,505,
310,501,
310,500,
311,499,
312,496,
312,496,
308,493,
303,492,
307,488,
309,487,
308,486,
304,483,
304,481,
302,476,
303,478,
301,474,
296,474,
298,472,
299,471,
296,470,
296,467,
293,466,
291,464,
290,464,
291,465,
288,462,
286,461,
283,461,
286,459,
285,457,
285,458,
282,459,
282,458,
281,457,
282,455,
282,457,
277,457,
276,457,
278,455,
277,457,
275,456,
270,458,
269,458,
274,457,
271,459,
273,461,
268,461,
268,460,
268,461,
268,461,
266,463,
265,464,
264,463,
262,462,
267,464,
260,466,
261,465,
261,467,
256,465,
265,466,
263,468,
262,467,
262,466,
262,467,
263,467,
264,466,
267,468,
266,469,
265,468,
266,470,
269,469,
268,471,
265,470,
267,471,
266,468,
267,471,
268,473,
269,474,
269,476,
271,475,
270,478,
271,482,
270,485,
272,489,
272,495,
278,502,
279,509,
280,520,
284,527,
289,539,
295,553,
298,566,
309,582,
316,597,
327,614,
339,627,
348,644,
358,659,
366,674,
379,687,
394,702,
407,714,
419,726,
430,735,
444,742,
457,747,
471,751,
479,753,
491,756,
498,756,
511,751,
518,748,
523,745,
530,738,
535,730,
536,723,
539,712,
544,705,
545,695,
544,682,
546,671,
544,662,
540,648,
534,637,
537,624,
531,614,
528,605,
525,595,
516,584,
512,573,
504,564,
499,556,
492,547,
485,538,
475,528,
470,521,
467,518,
457,512,
447,504,
441,497,
436,492,
427,488,
418,480,
406,474,
400,467,
390,463,
386,460,
378,452,
368,449,
362,445,
357,439,
350,437,
341,433,
333,435,
329,430,
326,429,
319,428,
314,431,
308,430,
303,431,
300,431,
298,435,
294,440,
288,440,
287,443,
287,447,
283,450,
285,456,
281,457,
278,463,
279,467,
282,471,
282,475,
282,480,
281,483,
282,486,
283,490,
287,495,
287,498,
285,498,
287,500,
294,503,
294,505,
294,506,
297,506,
300,507,
301,506,
303,508,
304,508,
302,508,
307,505,
308,503,
307,505,
308,504,
308,499,
312,496,
313,494,
317,496,
314,493,
315,491,
315,487,
317,485,
318,484,
317,481,
313,481,
314,475,
309,474,
310,473,
308,471,
305,470,
304,465,
303,465,
300,466,
302,464,
295,463,
290,460,
295,460,
294,459,
291,456,
287,458,
285,453,
287,454,
287,456,
283,456,
279,455,
278,454,
275,454,
277,453,
275,454,
272,454,
273,456,
271,455,
269,454,
269,456,
265,457,
264,457,
265,455,
261,458,
262,459,
260,460,
257,459,
257,457,
260,458,
260,460,
258,463,
257,461,
258,461,
258,460,
256,461,
263,464,
255,462,
257,463,
259,463,
260,464,
262,463,
259,465,
262,464,
259,462,
264,466,
262,467,
265,467,
261,467,
269,467,
267,465,
263,471,
266,472,
268,475,
269,480,
272,486,
274,492,
274,498,
275,502,
282,515,
287,527,
291,541,
296,555,
303,568,
313,585,
324,602,
329,618,
340,638,
352,653,
363,668,
378,686,
382,701,
396,715,
410,728,
422,739,
435,747,
449,757,
459,759,
472,765,
480,765,
495,767,
503,767,
511,764,
518,760,
528,752,
533,746,
536,740,
543,730,
546,719,
549,709,
550,697,
552,691,
550,678,
550,665,
550,653,
551,642,
544,631,
540,620,
533,609,
529,597,
523,586,
520,578,
511,569,
502,560,
499,550,
489,542,
485,538,
476,530,
466,523,
462,517,
456,510,
448,505,
439,499,
431,493,
421,485,
414,480,
406,475,
397,469,
393,466,
382,460,
374,452,
368,450,
358,446,
347,442,
340,437,
335,435,
327,432,
325,432,
318,431,
308,429,
305,428,
304,432,
296,434,
292,435,
285,436,
284,436,
286,441,
279,443,
277,444,
276,450,
276,453,
278,457,
279,463,
279,467,
277,471,
278,472,
282,478,
283,483,
283,486,
284,488,
286,492,
289,495,
290,500,
292,501,
293,504,
298,506,
300,506,
302,507,
304,508,
305,510,
309,506,
310,507,
314,508,
312,509,
311,504,
315,504,
314,499,
317,501,
315,499,
316,497,
318,495,
318,490,
318,490,
315,489,
317,485,
311,481,
312,480,
312,476,
310,476,
309,474,
309,473,
306,467,
307,468,
304,467,
301,463,
299,461,
300,462,
298,458,
292,457,
293,456,
293,454,
290,455,
293,455,
284,453,
284,454,
282,452,
281,451,
281,448,
278,448,
272,447,
272,448,
269,445,
272,447,
269,448,
266,448,
265,448,
260,443,
263,444,
261,446,
257,446,
257,446,
258,445,
259,445,
256,450,
255,448,
256,449,
256,445,
258,446,
250,448,
254,450,
252,448,
250,450,
251,448,
251,451,
252,452,
250,453,
255,456,
252,454,
256,462,
256,467,
257,471,
258,475,
265,481,
265,492,
270,506,
273,515,
278,529,
287,544,
296,562,
303,580,
311,598,
323,618,
334,633,
346,654,
359,672,
370,688,
383,707,
397,719,
412,734,
426,748,
438,759,
451,764,
463,771,
476,772,
490,777,
501,776,
510,775,
519,772,
529,768,
535,761,
539,754,
546,747,
552,736,
560,727,
562,716,
559,706,
558,695,
556,679,
554,668,
557,658,
548,645,
546,633,
540,620,
540,610,
531,597,
522,587,
513,576,
508,566,
501,555,
494,550,
486,540,
479,534,
471,523,
461,516,
454,509,
444,504,
432,498,
423,488,
417,480,
412,476,
404,470,
390,463,
385,456,
379,448,
368,447,
365,444,
353,437,
349,433,
340,430,
337,428,
327,426,
321,422,
312,420,
308,419,
304,421,
300,422,
294,423,
288,425,
285,426,
280,429,
275,430,
280,436,
275,437,
274,440,
269,446,
274,448,
271,453,
272,457,
273,460,
276,467,
272,469,
271,473,
274,476,
277,479,
277,481,
278,489,
280,491,
281,492,
282,490,
289,495,
287,497,
292,499,
290,499,
292,497,
292,497,
295,500,
295,500,
299,497,
298,495,
299,493,
302,494,
300,493,
301,490,
301,488,
298,485,
301,485,
299,483,
299,482,
301,476,
295,474,
302,475,
302,472,
298,469,
299,466,
302,461,
300,464,
296,461,
294,461,
295,455,
295,454,
295,455,
294,453,
288,455,
289,449,
287,448,
288,447,
282,450,
281,448,
281,448,
280,445,
279,446,
274,445,
273,448,
272,445,
271,443,
273,444,
271,446,
267,445,
267,446,
265,445,
265,445,
264,443,
260,443,
261,445,
260,443,
261,445,
260,446,
256,444,
256,446,
254,444,
255,447,
252,446,
252,446,
252,445,
255,443,
256,445,
255,447,
254,449,
252,449,
252,447,
253,448,
253,449,
253,452,
253,450,
255,451,
255,451,
257,453,
254,455,
254,459,
255,460,
252,462,
256,467,
257,471,
260,478,
261,485,
268,492,
271,504,
277,517,
280,530,
286,545,
295,562,
306,580,
313,599,
325,615,
333,634,
349,654,
359,675,
373,693,
384,715,
399,730,
414,741,
429,755,
443,765,
457,776,
472,781,
488,786,
498,788,
511,790,
520,788,
529,785,
539,778,
548,770,
554,763,
556,755,
563,746,
567,733,
568,722,
571,709,
569,698,
564,684,
564,667,
564,657,
557,642,
553,630,
545,615,
538,602,
538,592,
532,577,
522,571,
512,558,
507,548,
497,536,
487,529,
480,523,
468,511,
462,504,
452,495,
445,491,
435,484,
423,476,
416,468,
403,462,
397,455,
386,453,
380,445,
369,439,
361,433,
353,432,
344,428,
333,425,
329,417,
322,420,
317,422,
308,421,
302,421,
296,417,
296,420,
291,420,
287,424,
281,425,
280,425,
279,432,
278,437,
275,441,
276,446,
277,448,
276,452,
279,459,
279,465,
277,467,
278,472,
281,476,
280,478,
284,484,
282,488,
284,489,
292,492,
295,495,
296,499,
298,501,
298,500,
301,503,
303,502,
302,506,
306,505,
307,505,
305,502,
313,503,
311,503,
309,502,
308,498,
315,498,
315,495,
315,495,
316,496,
316,492,
316,489,
313,484,
311,484,
314,482,
310,479,
312,475,
308,474,
305,472,
305,468,
306,466,
304,463,
299,459,
298,459,
294,457,
292,457,
288,456,
290,452,
285,449,
282,448,
283,450,
279,447,
278,445,
277,446,
276,445,
272,445,
270,445,
271,443,
270,445,
267,444,
267,445,
266,444,
267,444,
265,443,
268,445,
266,443,
267,443,
267,444,
264,444,
263,446,
263,445,
265,447,
263,444,
263,448,
261,445,
259,449,
258,447,
255,449,
258,448,
256,449,
253,453,
254,452,
254,449,
255,450,
256,450,
253,453,
251,451,
255,451,
255,453,
254,456,
249,456,
252,457,
251,456,
251,455,
251,456,
250,461,
249,462,
254,463,
255,464,
257,471,
258,476,
255,479,
262,486,
263,490,
270,503,
274,515,
277,531,
281,543,
292,559,
300,577,
308,595,
316,617,
329,633,
340,655,
354,675,
367,694,
383,712,
395,728,
415,741,
426,756,
444,768,
460,779,
475,783,
491,787,
504,790,
516,790,
526,791,
537,788,
546,784,
562,779,
566,771,
569,760,
576,750,
580,739,
587,728,
585,718,
583,703,
580,689,
580,674,
576,659,
575,648,
566,635,
563,621,
558,607,
553,596,
546,584,
535,573,
527,563,
519,550,
509,541,
502,532,
488,523,
480,513,
472,506,
461,499,
452,490,
440,485,
432,476,
419,466,
410,461,
397,455,
392,450,
380,444,
372,440,
360,431,
353,429,
344,426,
336,423,
327,419,
322,419,
310,419,
306,418,
298,417,
294,415,
287,419,
286,423,
280,425,
272,428,
271,434,
270,436,
269,441,
264,445,
265,450,
265,454,
266,460,
269,462,
271,471,
269,474,
273,480,
276,482,
280,488,
282,493,
280,496,
284,496,
285,500,
290,499,
293,506,
290,506,
293,507,
297,507,
298,507,
300,509,
300,509,
302,508,
301,504,
307,502,
307,504,
309,503,
309,497,
307,495,
314,493,
314,494,
317,491,
315,488,
312,485,
316,483,
315,481,
316,478,
314,475,
313,470,
313,468,
312,468,
310,464,
308,463,
308,460,
304,454,
300,455,
301,454,
298,451,
293,451,
295,448,
293,447,
288,446,
280,445,
279,440,
277,441,
277,443,
273,444,
270,441,
269,442,
266,439,
268,441,
266,440,
265,440,
262,438,
260,440,
258,438,
258,442,
254,441,
253,441,
251,442,
252,443,
248,444,
249,443,
250,444,
250,444,
252,443,
249,446,
251,445,
251,448,
251,445,
250,446,
253,448,
253,450,
253,449,
256,448,
257,451,
257,449,
257,452,
255,452,
258,452,
260,451,
258,454,
254,454,
253,455,
248,453,
254,452,
252,454,
253,456,
251,454,
247,456,
250,457,
251,459,
247,462,
251,461,
249,465,
251,464,
254,473,
256,478,
254,484,
258,491,
263,504,
267,515,
272,531,
278,546,
285,560,
296,583,
307,602,
317,623,
331,645,
341,664,
359,685,
373,706,
387,728,
404,749,
419,763,
438,777,
456,790,
472,801,
491,807,
498,813,
523,815,
530,816,
547,821,
557,816,
570,813,
581,806,
590,800,
600,795,
606,781,
610,773,
614,760,
621,749,
619,738,
618,726,
618,711,
615,697,
613,684,
605,673,
600,659,
593,644,
588,635,
583,621,
572,609,
564,600,
553,590,
538,579,
534,570,
522,564,
511,554,
499,548,
491,538,
480,530,
468,522,
461,517,
449,509,
439,502,
429,493,
424,487,
413,482,
402,478,
396,468,
386,463,
379,457,
365,451,
361,447,
354,440,
346,437,
340,434,
333,433,
328,431,
320,429,
315,427,
313,429,
308,432,
299,432,
297,432,
294,435,
294,440,
285,444,
286,448,
287,449,
286,451,
288,458,
288,462,
285,467,
287,470,
286,475,
290,479,
291,483,
291,484,
292,490,
295,492,
295,495,
299,494,
298,500,
298,501,
300,502,
301,503,
303,506,
303,505,
303,506,
305,503,
310,503,
306,502,
308,501,
311,498,
311,497,
312,495,
314,496,
311,493,
312,491,
310,487,
313,485,
310,481,
310,480,
305,476,
309,473,
304,468,
308,468,
305,465,
305,463,
299,457,
301,454,
298,452,
296,453,
293,448,
292,443,
295,442,
288,440,
290,442,
283,438,
285,435,
282,434,
276,432,
276,432,
274,430,
271,431,
270,430,
268,429,
265,426,
262,427,
261,427,
258,424,
258,424,
255,428,
253,427,
250,425,
250,427,
251,427,
247,428,
247,428,
247,429,
246,430,
249,431,
244,435,
246,435,
245,435,
246,433,
246,435,
241,435,
245,438,
244,438,
244,440,
244,443,
245,441,
243,445,
242,445,
242,446,
248,446,
246,449,
245,450,
243,451,
242,450,
247,451,
248,455,
247,453,
247,456,
250,455,
250,452,
250,455,
251,457,
251,458,
251,458,
253,457,
251,458,
253,457,
253,459,
252,457,
257,457,
256,458,
254,459,
253,457,
252,455,
256,456,
259,459,
257,458,
256,457,
255,457,
257,461,
256,462,
263,465,
260,469,
260,472,
263,476,
268,483,
266,495,
270,504,
274,517,
280,528,
285,547,
295,565,
301,583,
310,606,
320,625,
335,651,
349,672,
362,695,
377,716,
391,734,
410,755,
426,774,
442,787,
459,800,
472,806,
496,816,
509,823,
521,826,
538,829,
551,828,
562,824,
576,824,
585,817,
594,810,
605,800,
612,790,
617,780,
618,767,
621,755,
622,741,
621,725,
618,712,
622,700,
618,686,
612,672,
608,656,
602,643,
593,631,
579,620,
572,607,
565,594,
558,586,
544,575,
534,564,
521,554,
514,545,
504,538,
489,532,
485,522,
468,515,
462,508,
452,500,
442,492,
430,488,
420,479,
410,474,
402,467,
390,463,
382,457,
373,449,
366,443,
360,441,
345,437,
339,430,
332,430,
325,426,
320,424,
312,424,
309,425,
300,423,
294,424,
291,426,
284,429,
282,432,
279,435,
277,436,
277,441,
272,445,
270,451,
264,453,
265,457,
267,460,
269,467,
269,471,
272,476,
272,478,
276,479,
281,486,
283,488,
285,491,
289,493,
287,493,
295,497,
295,500,
297,500,
302,500,
303,497,
305,501,
304,500,
306,501,
309,498,
310,499,
311,498,
312,496,
311,495,
314,491,
317,487,
315,489,
313,486,
312,483,
309,478,
307,477,
308,471,
307,473,
302,468,
301,465,
295,460,
301,457,
296,456,
296,452,
294,448,
291,447,
294,444,
288,442,
284,438,
283,436,
281,433,
281,431,
279,431,
275,430,
274,430,
271,425,
271,425,
269,424,
266,428,
263,424,
262,424,
266,424,
261,422,
261,424,
254,420,
256,421,
257,421,
258,423,
253,422,
251,425,
251,423,
253,424,
248,426,
251,429,
244,428,
247,429,
245,428,
247,431,
243,433,
239,432,
243,428,
244,430,
243,435,
243,440,
241,439,
242,437,
242,442,
242,442,
240,444,
239,445,
240,441,
243,444,
242,447,
242,448,
239,449,
243,452,
243,453,
244,454,
243,454,
244,455,
244,455,
246,456,
251,455,
251,457,
248,456,
249,458,
249,457,
257,459,
254,459,
249,458,
253,457,
252,458,
256,458,
258,460,
257,460,
256,460,
255,458,
261,459,
261,460,
257,460,
259,460,
256,460,
261,460,
257,461,
262,459,
258,461,
263,459,
265,460,
264,462,
263,464,
262,464,
265,464,
264,465,
263,471,
267,474,
265,480,
268,485,
268,491,
272,504,
274,513,
276,527,
285,540,
292,556,
298,575,
305,594,
313,615,
321,635,
336,656,
348,679,
362,701,
376,720,
390,738,
406,754,
422,770,
440,785,
454,795,
471,803,
490,809,
505,811,
517,815,
534,816,
543,809,
554,805,
571,803,
577,792,
582,784,
590,773,
596,760,
601,750,
605,734,
601,722,
602,708,
603,690,
602,676,
599,662,
595,648,
589,635,
581,618,
574,605,
569,593,
559,581,
548,568,
540,554,
532,546,
521,538,
511,529,
496,521,
488,511,
479,505,
467,496,
459,489,
446,484,
434,476,
426,469,
418,463,
408,460,
394,451,
385,446,
373,441,
369,436,
359,432,
344,427,
339,424,
332,418,
328,418,
319,419,
313,417,
306,418,
303,420,
298,421,
295,423,
287,428,
287,428,
281,431,
280,434,
280,441,
275,445,
273,448,
274,452,
274,461,
272,464,
270,471,
269,473,
271,479,
274,483,
276,487,
274,494,
278,495,
280,497,
285,502,
289,503,
287,507,
290,509,
295,507,
297,511,
302,510,
303,511,
301,510,
305,509,
314,509,
313,509,
316,508,
311,506,
313,501,
314,501,
317,499,
316,496,
316,493,
316,489,
317,486,
319,481,
316,483,
316,479,
314,474,
315,471,
316,470,
313,468,
309,462,
308,459,
306,456,
306,455,
304,452,
300,449,
300,446,
296,442,
298,444,
296,444,
289,442,
287,435,
288,438,
286,435,
285,435,
279,434,
276,434,
274,431,
273,432,
269,433,
266,431,
265,430,
264,431,
259,432,
260,431,
254,432,
255,433,
253,432,
253,432,
253,432,
251,436,
247,434,
247,434,
247,435,
247,437,
245,439,
244,440,
245,440,
244,442,
243,445,
241,443,
243,446,
239,445,
242,446,
241,449,
243,450,
242,452,
242,450,
249,453,
244,456,
244,454,
245,452,
241,454,
246,454,
249,456,
250,456,
247,457,
246,455,
248,457,
250,458,
252,458,
247,459,
248,457,
249,458,
251,458,
251,459,
249,458,
251,459,
249,456,
253,461,
251,461,
251,463,
248,461,
254,461,
256,463,
255,460,
254,464,
256,462,
259,465,
260,466,
263,470,
263,476,
264,478,
270,482,
274,492,
274,498,
275,509,
281,520,
288,535,
291,551,
297,565,
307,585,
315,605,
322,624,
338,645,
353,669,
360,690,
373,710,
391,728,
412,749,
424,764,
439,777,
452,789,
467,799,
484,805,
501,813,
513,816,
526,818,
536,813,
554,812,
562,809,
571,802,
578,793,
587,783,
595,770,
596,761,
601,748,
602,735,
605,719,
602,706,
605,693,
601,678,
594,662,
591,649,
587,634,
583,621,
574,610,
564,595,
558,583,
547,571,
543,563,
530,552,
521,544,
510,534,
504,527,
492,519,
484,510,
471,502,
458,496,
452,488,
447,483,
435,478,
422,471,
412,463,
404,457,
392,452,
385,448,
375,443,
362,436,
352,432,
348,429,
341,424,
327,424,
318,420,
314,418,
308,418,
304,419,
295,420,
287,421,
291,421,
285,425,
284,426,
277,428,
273,434,
272,439,
271,440,
271,447,
271,451,
270,456,
268,457,
273,463,
277,465,
275,474,
275,478,
277,482,
281,485,
282,488,
283,493,
280,496,
282,497,
290,500,
290,503,
291,504,
290,507,
293,503,
297,505,
302,507,
301,506,
296,505,
301,505,
301,499,
305,500,
304,501,
303,498,
302,495,
308,494,
308,489,
307,486,
304,483,
307,479,
305,480,
304,476,
306,470,
301,471,
301,468,
302,464,
304,459,
302,457,
299,455,
296,450,
296,451,
293,447,
296,446,
293,445,
289,441,
290,439,
291,440,
287,437,
282,435,
280,435,
279,432,
279,434,
279,431,
274,430,
272,431,
271,428,
270,428,
270,430,
266,427,
261,429,
257,427,
262,429,
258,432,
256,428,
253,430,
252,431,
252,432,
249,432,
246,433,
242,431,
240,432,
245,434,
243,437,
239,439,
236,440,
236,440,
239,441,
234,441,
238,442,
234,443,
234,441,
231,443,
234,445,
235,447,
230,449,
231,449,
235,448,
235,450,
236,453,
233,452,
231,453,
234,456,
239,454,
237,454,
235,458,
235,458,
237,457,
239,458,
240,458,
239,459,
239,460,
242,460,
246,460,
247,461,
244,462,
244,462,
246,461,
253,465,
252,466,
251,465,
251,465,
255,465,
259,467,
261,467,
256,465,
258,468,
257,469,
263,466,
268,469,
264,469,
264,469,
264,467,
265,471,
269,469,
265,470,
266,471,
266,468,
267,471,
270,469,
268,469,
267,470,
268,469,
270,468,
270,469,
268,469,
266,468,
267,467,
270,468,
271,470,
270,470,
268,473,
265,473,
269,474,
270,480,
270,486,
274,492,
273,498,
278,507,
281,521,
284,535,
287,550,
294,563,
299,583,
310,600,
320,623,
328,642,
341,663,
355,683,
369,706,
384,726,
396,747,
411,762,
430,775,
446,791,
460,802,
478,810,
496,816,
511,819,
529,824,
542,824,
553,823,
565,819,
576,811,
584,806,
593,796,
596,784,
604,772,
613,761,
616,747,
620,734,
622,720,
618,704,
617,689,
617,675,
610,664,
607,647,
604,633,
593,617,
590,605,
587,594,
571,583,
562,573,
555,562,
544,553,
535,543,
524,535,
512,527,
501,520,
492,511,
484,506,
468,502,
460,496,
450,489,
438,482,
433,478,
420,473,
411,468,
402,461,
394,457,
387,454,
375,451,
366,446,
354,442,
351,440,
339,437,
335,436,
327,436,
317,432,
316,432,
313,432,
307,433,
299,434,
294,436,
294,438,
294,441,
287,445,
283,448,
280,452,
283,455,
280,460,
279,464,
278,469,
279,472,
280,475,
281,479,
284,487,
281,488,
284,493,
288,495,
294,497,
291,506,
295,505,
295,504,
294,508,
302,509,
305,511,
305,512,
303,513,
310,509,
314,510,
315,511,
316,510,
311,509,
318,508,
323,505,
321,502,
317,500,
317,498,
319,493,
321,490,
322,490,
319,487,
317,483,
318,480,
316,478,
317,475,
313,472,
310,467,
311,466,
307,459,
307,461,
306,458,
302,455,
299,452,
300,450,
298,448,
294,447,
293,445,
290,442,
291,439,
290,439,
285,438,
280,438,
279,436,
276,436,
276,434,
271,433,
267,434,
264,433,
261,430,
261,429,
259,433,
254,433,
254,430,
250,431,
253,434,
252,434,
246,435,
247,435,
245,434,
244,437,
245,439,
244,439,
244,437,
245,440,
242,440,
240,442,
243,443,
244,444,
243,442,
245,444,
249,446,
244,446,
243,448,
246,448,
245,447,
245,451,
243,450,
246,450,
246,452,
247,451,
246,453,
246,455,
240,454,
244,455,
244,454,
246,458,
243,461,
243,459,
243,459,
240,457,
247,461,
247,463,
246,464,
247,461,
251,464,
253,465,
249,465,
252,463,
252,463,
254,464,
259,466,
259,468,
260,469,
256,468,
259,466,
260,466,
257,469,
261,469,
259,469,
261,468,
263,469,
261,471,
261,471,
260,471,
263,469,
262,473,
262,473,
257,470,
260,469,
259,470,
263,472,
262,471,
263,470,
261,470,
260,471,
263,469,
264,471,
263,471,
267,472,
267,470,
266,469,
268,473,
267,471,
267,472,
265,470,
270,470,
268,471,
267,473,
267,474,
265,476,
269,476,
271,480,
271,483,
272,490,
275,494,
277,501,
281,511,
284,521,
288,533,
293,545,
298,561,
309,581,
312,599,
325,617,
336,636,
348,655,
357,675,
372,695,
385,716,
400,734,
414,748,
430,764,
444,777,
459,788,
474,796,
489,801,
505,803,
518,805,
527,806,
541,804,
551,798,
563,792,
570,787,
578,778,
585,766,
589,752,
594,741,
600,728,
599,714,
601,700,
599,685,
602,672,
599,657,
593,641,
589,630,
584,614,
578,602,
572,590,
563,578,
556,568,
546,556,
537,546,
527,536,
519,529,
505,519,
496,512,
486,505,
470,500,
463,494,
453,484,
445,481,
438,475,
427,471,
415,466,
406,461,
395,452,
387,449,
380,445,
370,442,
360,438,
354,432,
344,432,
341,432,
333,429,
323,428,
317,427,
314,428,
307,430,
302,430,
296,434,
290,434,
286,437,
287,437,
284,442,
280,446,
280,450,
278,455,
280,460,
279,464,
277,468,
275,473,
281,476,
283,482,
282,485,
284,489,
285,492,
288,495,
289,498,
294,503,
295,505,
297,507,
300,508,
304,510,
305,513,
304,511,
304,514,
308,514,
310,513,
315,517,
316,514,
314,513,
317,509,
318,507,
320,507,
319,508,
320,501,
321,500,
320,496,
320,497,
320,495,
320,490,
320,487,
320,482,
320,483,
315,480,
317,478,
316,473,
314,469,
314,468,
313,466,
310,461,
307,461,
304,456,
306,458,
302,455,
300,454,
294,452,
296,448,
292,450,
287,450,
288,447,
283,444,
284,446,
281,445,
280,443,
276,443,
272,441,
269,441,
269,444,
266,443,
261,443,
260,442,
261,441,
260,443,
257,444,
255,444,
253,442,
253,442,
254,444,
254,445,
251,444,
252,445,
250,444,
252,446,
246,448,
248,448,
251,449,
249,450,
252,451,
250,450,
248,453,
248,453,
249,453,
246,456,
247,454,
247,456,
247,456,
249,455,
254,459,
249,461,
247,460,
246,461,
252,460,
252,462,
250,464,
253,464,
255,463,
255,462,
257,463,
258,466,
257,466,
256,468,
258,466,
259,466,
261,468,
259,470,
259,470,
257,469,
259,465,
259,469,
257,469,
258,471,
256,471,
261,470,
254,470,
259,471,
255,472,
257,471,
259,470,
258,470,
261,473,
256,470,
256,469,
258,469,
260,472,
255,471,
259,471,
259,471,
257,472,
262,475,
264,478,
264,480,
266,485,
267,491,
267,497,
273,506,
275,515,
278,526,
288,539,
295,554,
303,573,
309,588,
315,606,
328,623,
339,640,
351,660,
363,679,
377,697,
390,712,
403,728,
415,745,
432,755,
449,766,
460,773,
481,778,
492,783,
502,785,
513,783,
530,782,
539,777,
548,773,
558,765,
562,757,
570,746,
575,734,
580,724,
579,710,
581,697,
581,683,
579,666,
580,656,
574,639,
570,627,
565,612,
559,597,
553,585,
541,574,
535,563,
527,550,
519,539,
514,530,
504,522,
493,512,
484,505,
475,494,
466,487,
457,481,
448,477,
434,469,
425,462,
418,456,
409,452,
399,446,
389,441,
378,435,
373,432,
364,429,
353,426,
347,423,
339,418,
334,418,
326,419,
319,418,
310,417,
302,419,
299,421,
290,425,
289,424,
281,426,
276,426,
277,432,
273,438,
270,443,
262,444,
263,448,
268,456,
266,460,
269,463,
261,467,
266,472,
265,475,
267,484,
269,487,
270,491,
272,494,
275,497,
280,498,
283,503,
283,506,
285,507,
288,506,
293,511,
296,513,
299,513,
303,512,
307,512,
308,513,
304,512,
308,511,
311,509,
309,506,
310,506,
314,504,
312,503,
312,500,
311,497,
313,491,
312,493,
312,491,
310,485,
310,485,
310,482,
308,481,
306,480,
306,474,
302,472,
304,469,
299,469,
296,467,
292,461,
291,461,
294,459,
291,459,
289,456,
288,456,
287,452,
288,452,
283,450,
281,451,
279,451,
278,449,
277,448,
275,448,
271,447,
269,447,
267,445,
268,444,
264,445,
260,446,
259,447,
255,445,
254,444,
256,444,
252,448,
251,448,
247,446,
250,446,
250,447,
250,447,
247,447,
247,447,
246,445,
248,446,
245,448,
246,450,
244,450,
250,450,
247,453,
247,453,
246,453,
248,454,
248,453,
250,456,
249,456,
245,456,
248,457,
248,458,
251,458,
246,458,
249,459,
247,460,
250,460,
251,462,
253,465,
248,466,
251,466,
253,465,
257,468,
255,469,
253,468,
254,469,
255,468,
258,472,
259,473,
258,470,
255,473,
255,470,
262,473,
264,471,
264,474,
261,474,
260,474,
263,473,
263,475,
263,475,
263,474,
262,475,
266,474,
267,474,
265,476,
265,475,
268,474,
267,472,
269,472,
272,476,
268,473,
268,474,
266,473,
270,475,
268,477,
268,476,
269,475,
269,474,
270,477,
271,483,
269,484,
269,485,
274,492,
277,497,
273,507,
279,516,
282,526,
286,539,
291,549,
295,567,
304,583,
308,601,
320,616,
336,638,
345,657,
356,676,
369,691,
385,712,
400,729,
414,743,
429,759,
440,769,
458,778,
474,788,
490,794,
509,798,
521,799,
535,797,
545,792,
559,792,
567,782,
577,778,
587,768,
596,758,
599,743,
607,734,
603,718,
605,706,
612,694,
611,682,
610,668,
607,654,
604,641,
600,625,
595,613,
591,601,
581,590,
571,577,
564,565,
556,558,
548,547,
536,540,
525,529,
515,521,
507,515,
496,509,
485,501,
476,497,
463,489,
455,487,
444,483,
432,478,
423,472,
414,464,
405,459,
393,460,
386,454,
374,450,
369,445,
357,441,
348,442,
342,438,
330,437,
325,437,
319,436,
310,435,
306,438,
301,439,
299,438,
295,440,
291,444,
290,447,
286,452,
285,452,
285,457,
284,461,
280,467,
282,471,
282,473,
286,480,
284,484,
282,486,
286,491,
287,491,
290,496,
296,501,
296,504,
298,505,
302,507,
303,512,
306,516,
309,515,
306,517,
309,515,
309,516,
308,518,
311,517,
313,518,
314,515,
315,513,
317,513,
317,513,
318,511,
320,507,
321,503,
324,502,
322,501,
321,497,
323,494,
321,492,
324,491,
319,487,
321,485,
319,483,
320,476,
321,478,
314,475,
317,473,
314,470,
314,467,
313,465,
311,465,
307,461,
302,454,
303,454,
304,455,
297,453,
296,453,
295,450,
293,448,
290,448,
286,446,
281,447,
278,447,
276,445,
277,446,
272,448,
268,445,
267,446,
264,444,
264,445,
261,445,
255,444,
255,446,
254,444,
253,446,
249,448,
248,448,
245,446,
247,445,
246,448,
250,447,
248,450,
246,450,
245,449,
246,449,
246,451,
245,451,
244,454,
245,453,
246,451,
244,455,
246,455,
245,457,
245,453,
246,455,
246,459,
248,460,
245,460,
248,458,
247,461,
247,461,
246,463,
250,464,
253,464,
251,461,
254,465,
255,465,
258,467,
256,464,
258,466,
254,468,
258,470,
258,469,
259,467,
260,468,
263,471,
265,473,
265,474,
266,473,
269,472,
271,473,
270,475,
269,476,
267,472,
271,473,
275,474,
276,477,
274,476,
274,476,
274,475,
275,476,
276,478,
273,474,
275,476,
273,475,
278,477,
276,477,
274,476,
274,476,
273,477,
274,475,
273,475,
274,476,
271,476,
272,475,
273,475,
271,476,
269,477,
268,478,
272,479,
271,481,
271,484,
270,488,
272,493,
274,498,
278,507,
282,517,
282,527,
289,539,
298,551,
307,570,
314,585,
318,605,
330,623,
343,639,
351,655,
367,679,
381,701,
392,717,
408,732,
425,748,
441,763,
454,774,
469,784,
484,789,
499,797,
516,799,
530,802,
540,802,
553,797,
564,792,
576,789,
585,781,
590,772,
597,760,
603,748,
610,739,
609,726,
611,712,
613,699,
612,683,
609,672,
607,660,
602,646,
595,632,
593,618,
584,606,
578,595,
570,581,
561,573,
553,560,
545,552,
536,545,
527,536,
515,529,
507,521,
499,514,
486,510,
474,502,
464,499,
456,489,
445,485,
434,482,
425,476,
418,470,
408,465,
399,461,
391,457,
379,453,
367,451,
364,442,
355,441,
348,439,
339,441,
332,437,
327,438,
318,435,
315,437,
308,441,
300,443,
300,445,
300,446,
292,448,
288,452,
285,456,
284,456,
283,463,
284,469,
283,475,
282,477,
281,482,
288,485,
287,489,
283,495,
286,498,
289,501,
288,505,
294,507,
291,511,
296,514,
300,516,
302,515,
303,518,
304,519,
312,520,
312,520,
315,519,
318,518,
317,516,
321,517,
322,517,
323,514,
326,512,
331,512,
326,511,
327,507,
329,503,
335,501,
331,499,
328,498,
328,493,
323,488,
326,488,
326,484,
319,482,
319,480,
316,473,
317,471,
313,469,
308,467,
306,464,
304,463,
303,460,
301,458,
297,458,
295,454,
295,453,
292,451,
291,449,
290,452,
285,448,
286,448,
283,443,
280,443,
278,446,
275,445,
275,443,
273,443,
273,443,
272,444,
268,443,
267,440,
267,441,
267,444,
266,445,
262,445,
261,445,
263,446,
262,447,
256,448,
260,448,
257,447,
260,448,
259,447,
254,452,
255,451,
255,452,
258,452,
252,452,
258,456,
255,456,
255,456,
256,456,
257,457,
258,458,
257,461,
257,459,
257,461,
258,463,
263,467,
259,466,
259,468,
262,465,
263,467,
261,470,
265,469,
262,470,
262,470,
261,468,
262,469,
262,472,
262,470,
258,470,
265,472,
261,473,
261,474,
260,472,
259,474,
259,471,
259,473,
261,474,
261,472,
263,473,
265,472,
261,474,
262,474,
264,472,
264,472,
266,472,
265,470,
263,472,
264,471,
263,471,
264,470,
267,472,
266,472,
267,474,
266,474,
273,476,
270,480,
272,484,
273,489,
274,494,
279,501,
284,513,
285,524,
290,535,
292,547,
301,563,
310,582,
321,601,
326,619,
342,637,
352,655,
369,675,
382,694,
396,713,
412,726,
426,741,
441,755,
455,767,
474,777,
490,783,
501,785,
517,791,
531,789,
541,791,
553,787,
558,781,
571,775,
578,767,
584,761,
589,749,
592,735,
595,722,
596,708,
597,697,
592,683,
591,669,
593,653,
587,640,
582,628,
571,612,
569,602,
560,586,
552,578,
547,565,
540,557,
530,545,
522,535,
513,527,
503,519,
492,512,
481,500,
472,494,
463,489,
449,482,
441,476,
430,468,
423,462,
413,458,
404,454,
392,448,
383,441,
373,437,
364,435,
356,433,
343,428,
335,426,
328,424,
320,423,
316,423,
306,423,
300,425,
296,425,
292,428,
286,430,
282,432,
279,438,
273,441,
273,445,
271,451,
269,455,
263,461,
267,464,
269,472,
269,477,
270,483,
271,488,
273,489,
275,495,
277,502,
281,504,
281,509,
281,512,
288,512,
287,515,
295,521,
297,519,
300,522,
304,522,
309,524,
310,523,
311,521,
317,518,
315,517,
318,518,
325,516,
324,516,
326,515,
329,509,
330,505,
326,503,
327,502,
327,499,
328,496,
330,493,
327,491,
323,486,
324,483,
326,480,
321,480,
323,477,
319,472,
315,470,
315,468,
312,466,
310,464,
306,462,
304,460,
306,458,
302,454,
297,456,
294,452,
290,450,
291,447,
287,449,
287,448,
280,445,
278,447,
276,443,
276,443,
277,444,
273,444,
271,444,
270,441,
271,442,
264,445,
263,443,
262,443,
261,442,
264,440,
260,442,
262,445,
256,445,
257,445,
254,444,
254,447,
250,448,
249,449,
247,449,
250,449,
248,452,
246,453,
245,453,
246,451,
245,452,
248,455,
247,457,
244,459,
241,460,
248,455,
248,459,
248,462,
247,462,
250,460,
252,462,
254,461,
252,464,
253,465,
254,464,
255,464,
256,467,
259,467,
259,467,
260,467,
263,468,
265,471,
262,469,
263,470,
265,468,
266,469,
267,469,
267,471,
266,472,
264,471,
265,468,
266,471,
265,470,
263,468,
259,470,
264,468,
262,470,
264,472,
264,472,
264,471,
262,470,
266,472,
266,474,
266,476,
267,479,
269,478,
270,484,
272,494,
275,500,
278,509,
279,518,
287,528,
293,545,
297,561,
309,578,
313,595,
330,615,
341,636,
355,658,
365,678,
376,699,
391,720,
410,739,
425,756,
439,770,
458,784,
474,792,
495,805,
509,813,
524,819,
537,816,
559,819,
569,818,
581,817,
598,811,
604,803,
613,796,
622,784,
627,777,
631,766,
632,752,
638,739,
631,726,
634,714,
630,701,
626,686,
622,671,
619,658,
613,646,
606,631,
594,620,
587,608,
576,596,
568,586,
560,576,
549,567,
541,556,
531,549,
518,541,
506,534,
494,529,
489,520,
477,514,
471,510,
459,505,
449,500,
438,492,
431,489,
423,482,
412,480,
402,472,
396,468,
385,462,
378,457,
369,455,
361,450,
350,448,
345,445,
336,445,
330,445,
322,443,
314,442,
311,441,
307,445,
298,446,
293,446,
292,448,
288,452,
287,458,
284,462,
282,465,
282,469,
282,472,
284,478,
283,484,
280,486,
282,488,
285,495,
288,496,
289,502,
291,508,
295,508,
297,509,
303,515,
303,518,
305,519,
306,519,
311,523,
315,522,
317,524,
316,523,
318,522,
319,518,
324,519,
326,519,
328,516,
327,512,
332,510,
327,511,
327,506,
328,503,
329,501,
329,497,
329,495,
328,491,
325,489,
325,485,
323,481,
321,479,
321,476,
318,472,
313,471,
317,465,
313,464,
311,462,
310,459,
306,458,
303,453,
302,452,
299,448,
295,448,
289,447,
286,443,
293,441,
287,441,
284,439,
281,438,
282,434,
276,433,
278,434,
274,435,
272,435,
266,434,
268,431,
266,436,
262,433,
258,435,
253,433,
256,434,
254,434,
253,436,
251,435,
247,436,
249,435,
250,439,
248,438,
246,439,
245,438,
246,440,
247,442,
245,442,
245,443,
243,444,
244,443,
246,443,
239,446,
242,448,
240,448,
243,447,
245,449,
239,452,
241,451,
244,450,
244,452,
244,453,
247,454,
248,457,
245,457,
250,456,
254,456,
255,457,
254,461,
256,460,
258,459,
257,461,
255,461,
255,461,
256,462,
256,463,
259,464,
260,467,
260,464,
259,465,
263,465,
263,464,
266,467,
265,467,
264,468,
269,468,
269,466,
273,468,
271,471,
272,467,
277,468,
277,467,
273,469,
278,470,
276,472,
273,469,
281,469,
280,471,
280,472,
278,473,
279,471,
280,470,
282,471,
282,472,
281,471,
280,471,
277,470,
279,470,
278,471,
274,472,
275,472,
274,469,
277,470,
273,469,
270,469,
270,468,
271,466,
272,470,
267,470,
269,468,
271,470,
271,469,
275,475,
269,478,
271,481,
274,487,
273,493,
275,498,
281,514,
285,524,
288,539,
297,554,
304,571,
314,590,
320,613,
334,634,
346,655,
361,676,
373,702,
389,725,
406,745,
422,760,
443,779,
460,795,
480,810,
492,819,
510,823,
532,830,
550,836,
564,835,
580,836,
594,831,
605,825,
618,821,
626,813,
633,804,
638,793,
644,780,
645,767,
645,755,
646,740,
645,726,
645,709,
646,696,
643,681,
635,666,
629,652,
623,637,
615,625,
603,615,
593,602,
582,591,
570,579,
558,568,
544,561,
538,553,
523,544,
513,538,
504,531,
493,526,
481,518,
471,514,
460,506,
450,502,
443,493,
430,490,
421,483,
411,477,
404,474,
398,465,
386,465,
377,461,
372,457,
367,455,
357,453,
348,449,
341,449,
336,446,
330,443,
324,446,
320,448,
312,449,
307,450,
303,454,
299,456,
293,460,
294,465,
292,466,
290,468,
293,475,
294,480,
289,483,
292,486,
293,492,
295,498,
295,504,
298,509,
302,511,
305,512,
310,516,
312,518,
314,520,
318,522,
322,523,
325,523,
324,525,
327,525,
332,522,
334,522,
338,523,
338,523,
337,519,
339,516,
341,515,
343,513,
341,511,
339,509,
336,505,
337,501,
341,500,
339,496,
335,493,
334,490,
334,486,
334,485,
332,483,
326,477,
327,476,
325,472,
320,467,
320,470,
316,464,
317,461,
312,456,
314,454,
308,453,
305,450,
301,448,
299,444,
295,441,
291,441,
289,439,
287,437,
285,435,
281,434,
279,432,
281,434,
272,433,
271,432,
270,429,
270,431,
266,430,
263,430,
261,426,
257,426,
258,430,
254,429,
254,429,
248,431,
251,427,
248,431,
245,432,
246,432,
246,429,
247,434,
246,434,
246,437,
246,439,
245,432,
249,437,
247,434,
248,441,
244,441,
247,441,
251,442,
250,445,
248,445,
246,450,
244,446,
249,448,
253,450,
251,452,
249,451,
248,451,
250,452,
252,456,
251,457,
248,457,
251,460,
248,459,
256,461,
252,460,
253,463,
253,462,
252,461,
258,464,
260,465,
260,466,
262,467,
259,466,
263,466,
264,468,
262,468,
259,468,
262,468,
266,467,
267,468,
265,469,
267,470,
263,466,
265,466,
266,468,
264,469,
262,468,
263,465,
264,464,
263,467,
264,466,
260,466,
265,465,
263,463,
266,465,
264,465,
266,464,
264,464,
264,465,
265,465,
264,469,
267,470,
263,472,
266,475,
270,482,
273,487,
278,496,
276,502,
286,515,
289,531,
298,546,
304,564,
314,583,
324,603,
337,626,
346,650,
361,671,
376,693,
392,715,
408,736,
427,756,
442,773,
461,790,
478,802,
495,814,
513,826,
530,830,
546,837,
558,841,
578,840,
592,839,
603,839,
616,834,
623,823,
636,816,
642,806,
645,797,
646,784,
646,773,
645,760,
645,743,
645,732,
645,719,
646,703,
645,690,
639,675,
633,663,
624,650,
617,636,
610,623,
600,612,
589,605,
576,592,
565,581,
551,573,
545,567,
532,559,
524,555,
508,546,
503,539,
491,536,
481,532,
471,526,
456,523,
452,516,
444,513,
433,506,
424,502,
417,497,
411,488,
399,485,
388,483,
383,480,
375,473,
372,469,
364,469,
357,468,
348,467,
342,466,
338,466,
330,466,
325,467,
322,469,
318,469,
316,470,
313,475,
309,477,
307,480,
304,486,
305,487,
307,490,
306,495,
305,502,
305,504,
308,507,
313,509,
312,514,
312,518,
315,520,
319,521,
323,526,
324,528,
326,530,
329,533,
332,532,
334,530,
336,531,
337,533,
339,532,
342,529,
343,528,
344,527,
348,526,
342,522,
345,520,
346,515,
347,516,
346,511,
348,509,
345,506,
345,498,
344,495,
342,496,
340,491,
332,487,
335,480,
330,478,
333,473,
328,470,
326,465,
323,459,
323,453,
318,452,
317,451,
315,448,
313,445,
308,441,
305,435,
302,438,
300,431,
300,430,
295,428,
292,427,
289,425,
281,423,
281,420,
279,421,
274,422,
270,420,
268,418,
268,416,
262,417,
264,421,
261,420,
256,420,
259,417,
256,419,
256,420,
256,423,
254,424,
255,424,
253,423,
250,426,
256,427,
247,428,
250,427,
250,429,
249,433,
246,434,
245,433,
249,433,
249,435,
248,438,
249,438,
246,440,
249,437,
252,439,
250,443,
249,444,
248,440,
248,444,
246,441,
251,447,
250,447,
253,448,
250,450,
250,448,
251,451,
252,453,
250,452,
245,451,
250,452,
251,455,
252,457,
252,456,
251,456,
252,456,
253,458,
254,459,
250,461,
248,456,
250,459,
252,459,
251,461,
250,462,
249,461,
248,462,
252,461,
253,461,
252,461,
253,462,
255,460,
259,461,
257,463,
257,459,
257,458,
257,458,
262,460,
259,463,
260,460,
258,459,
260,455,
268,458,
263,460,
264,459,
266,457,
263,457,
267,456,
265,455,
271,457,
269,457,
270,457,
270,456,
271,459,
269,463,
270,465,
272,465,
276,470,
272,479,
277,487,
278,496,
283,507,
286,522,
295,541,
297,560,
307,580,
318,600,
330,624,
344,650,
357,675,
371,700,
384,722,
402,746,
419,765,
439,787,
455,806,
470,820,
497,832,
513,843,
531,856,
548,861,
563,864,
581,867,
597,867,
608,866,
622,859,
632,853,
643,845,
645,835,
647,827,
647,816,
646,801,
645,787,
645,775,
646,759,
646,742,
646,727,
645,711,
645,697,
646,684,
645,669,
645,656,
635,640,
627,630,
616,619,
608,607,
591,595,
580,587,
577,577,
562,567,
549,560,
537,554,
528,546,
517,539,
505,536,
494,531,
480,522,
471,515,
460,511,
448,505,
439,501,
431,494,
416,488,
409,482,
403,479,
393,472,
384,469,
375,465,
367,456,
361,458,
352,454,
346,452,
337,452,
333,449,
329,446,
323,446,
317,449,
314,450,
310,450,
309,453,
301,458,
302,461,
296,461,
300,464,
299,467,
297,471,
295,478,
295,479,
295,483,
299,489,
302,493,
300,494,
303,498,
306,502,
307,502,
310,509,
310,510,
310,512,
318,509,
321,512,
321,516,
327,516,
324,517,
333,515,
335,517,
341,515,
337,514,
337,512,
336,509,
341,508,
344,507,
345,505,
344,501,
339,499,
342,494,
343,495,
341,493,
342,489,
339,483,
339,484,
339,481,
335,477,
333,470,
335,469,
335,465,
332,465,
328,462,
327,458,
326,455,
320,449,
322,450,
317,446,
315,444,
310,440,
313,435,
305,435,
304,434,
298,431,
298,428,
294,426,
292,428,
291,426,
286,425,
279,424,
280,419,
276,421,
269,417,
271,419,
262,416,
263,417,
262,417,
259,419,
255,420,
253,418,
250,414,
250,416,
246,420,
243,419,
242,419,
243,418,
241,422,
240,422,
236,425,
235,425,
237,424,
235,426,
236,430,
235,433,
235,433,
236,431,
234,434,
236,438,
235,440,
234,441,
234,438,
236,442,
236,445,
240,448,
238,448,
237,448,
239,447,
240,452,
243,453,
244,458,
245,455,
249,455,
250,460,
252,463,
252,462,
255,462,
254,461,
256,464,
257,467,
259,468,
261,465,
263,466,
262,468,
262,469,
262,469,
265,468,
266,468,
268,472,
269,472,
270,473,
272,471,
272,471,
277,473,
272,472,
275,474,
275,472,
278,472,
281,475,
279,474,
280,476,
282,472,
278,469,
280,470,
281,472,
279,473,
279,471,
279,467,
279,467,
278,468,
277,466,
278,465,
276,462,
277,464,
276,464,
276,463,
275,462,
273,457,
272,457,
273,459,
269,459,
270,460,
265,459,
267,460,
267,463,
265,468,
266,472,
266,477,
266,486,
268,498,
270,511,
273,523,
284,537,
291,556,
301,579,
311,604,
324,628,
336,648,
351,673,
368,700,
385,724,
401,749,
419,765,
438,783,
459,804,
477,819,
492,834,
510,840,
529,849,
545,857,
563,864,
580,867,
588,862,
603,858,
616,855,
625,849,
633,841,
639,831,
643,817,
645,806,
645,792,
646,780,
645,764,
645,746,
642,730,
638,717,
631,701,
626,686,
617,667,
611,654,
595,644,
586,628,
578,614,
571,601,
555,590,
543,580,
534,573,
523,562,
513,549,
504,543,
491,538,
483,532,
468,523,
464,518,
453,510,
445,507,
435,501,
427,493,
419,485,
408,479,
400,475,
392,469,
384,461,
376,454,
368,451,
361,448,
354,444,
343,441,
340,437,
334,430,
327,434,
320,434,
315,433,
306,432,
304,431,
296,437,
292,441,
290,443,
288,444,
285,445,
284,451,
280,455,
279,457,
277,460,
280,463,
280,469,
281,473,
282,480,
283,481,
285,481,
287,486,
288,487,
288,493,
290,491,
290,491,
291,494,
292,494,
294,497,
295,496,
298,495,
297,498,
297,497,
298,496,
298,494,
301,491,
304,491,
304,491,
302,489,
304,486,
303,480,
303,480,
303,481,
303,477,
303,475,
302,469,
301,466,
302,465,
301,463,
299,458,
298,451,
297,449,
295,448,
293,446,
293,444,
292,437,
290,433,
289,433,
286,431,
283,428,
281,421,
278,419,
277,418,
274,417,
272,413,
268,410,
264,406,
264,410,
259,407,
257,408,
254,402,
253,403,
248,403,
245,404,
243,404,
238,399,
238,401,
237,402,
234,404,
232,405,
231,404,
230,404,
230,405,
228,409,
226,409,
225,408,
225,409,
226,411,
223,414,
224,418,
225,418,
223,417,
224,421,
225,424,
224,428,
222,427,
226,427,
224,430,
226,433,
226,436,
227,438,
231,437,
233,443,
229,446,
233,449,
236,450,
237,452,
239,453,
240,455,
239,462,
241,461,
244,462,
245,465,
246,469,
248,472,
246,473,
250,472,
251,474,
254,478,
257,480,
258,482,
260,479,
260,479,
260,480,
266,484,
267,482,
270,480,
270,478,
272,481,
275,481,
276,480,
277,475,
279,475,
278,476,
276,476,
277,475,
275,471,
277,469,
278,471,
277,473,
279,470,
277,467,
274,464,
276,465,
275,465,
273,463,
275,459,
276,459,
276,459,
274,462,
273,460,
273,459,
274,458,
274,461,
273,465,
274,468,
274,471,
275,476,
277,486,
282,496,
284,507,
289,518,
295,533,
300,551,
310,572,
317,589,
329,606,
339,625,
350,645,
362,670,
372,689,
388,708,
404,721,
418,738,
431,753,
446,765,
461,775,
475,778,
488,784,
502,792,
512,792,
523,791,
532,784,
543,780,
551,777,
555,771,
560,759,
567,747,
572,735,
575,726,
576,713,
577,698,
575,681,
574,667,
570,656,
565,642,
558,630,
554,611,
546,597,
539,583,
531,573,
522,560,
510,547,
502,534,
494,527,
485,519,
473,510,
463,498,
453,492,
443,488,
432,481,
426,476,
413,467,
401,459,
394,456,
384,452,
373,445,
366,438,
357,431,
351,426,
342,424,
330,419,
324,415,
316,408,
307,404,
297,401,
293,402,
280,398,
277,397,
272,398,
265,400,
261,402,
253,403,
249,404,
249,407,
244,412,
243,418,
239,422,
241,424,
239,431,
241,441,
240,445,
241,451,
242,453,
244,460,
243,467,
248,472,
249,477,
253,480,
255,483,
259,490,
261,494,
265,497,
268,497,
271,498,
273,502,
275,506,
277,505,
281,503,
283,502,
286,506,
288,505,
288,504,
289,500,
290,500,
294,500,
296,500,
294,496,
296,491,
295,487,
296,487,
294,486,
292,482,
291,477,
293,473,
289,469,
288,469,
283,466,
282,462,
280,456,
276,456,
278,454,
271,451,
270,447,
269,442,
265,440,
261,441,
258,440,
256,436,
254,431,
251,431,
248,431,
249,430,
247,426,
246,424,
244,424,
237,425,
243,425,
239,424,
237,420,
236,421,
238,425,
235,425,
234,426,
234,423,
233,424,
230,427,
228,426,
227,429,
225,426,
225,428,
224,431,
220,434,
221,435,
222,433,
221,434,
224,439,
224,440,
223,440,
225,439,
224,442,
223,445,
224,446,
225,449,
228,448,
228,449,
228,451,
232,455,
232,454,
232,451,
234,451,
237,456,
236,457,
236,458,
237,453,
237,456,
238,460,
235,458,
236,461,
237,459,
239,457,
238,461,
235,464,
240,465,
239,463,
238,461,
239,465,
235,467,
238,467,
236,468,
239,465,
240,468,
244,471,
245,473,
242,473,
246,475,
248,478,
250,485,
256,490,
253,494,
257,498,
268,508,
267,520,
272,532,
279,547,
287,560,
295,578,
306,597,
316,621,
329,642,
343,661,
356,686,
373,709,
388,732,
405,751,
426,767,
443,783,
465,801,
482,815,
501,826,
519,833,
539,838,
554,845,
571,846,
588,844,
601,838,
611,831,
620,825,
633,818,
636,805,
642,790,
645,773,
644,759,
645,745,
644,726,
642,707,
636,685,
629,669,
623,651,
612,633,
604,611,
590,591,
579,575,
566,560,
550,545,
537,528,
522,511,
508,498,
495,487,
477,476,
465,466,
451,455,
436,449,
422,448,
410,440,
398,434,
387,426,
376,424,
364,421,
354,420,
343,416,
335,412,
323,412,
318,412,
310,411,
302,409,
295,406,
293,405,
286,408,
281,408,
275,406,
272,407,
270,409,
267,412,
263,414,
261,417,
258,418,
258,421,
258,426,
255,435,
258,436,
256,438,
256,442,
255,451,
257,457,
257,462,
258,464,
261,470,
261,476,
264,484,
267,487,
268,490,
271,493,
277,502,
278,504,
277,507,
283,507,
287,508,
288,511,
288,514,
293,515,
294,512,
297,511,
299,513,
301,514,
302,512,
305,510,
307,505,
308,505,
307,505,
308,501,
311,497,
311,490,
310,488,
308,486,
309,483,
308,477,
307,473,
306,470,
304,468,
302,465,
302,460,
301,455,
298,452,
294,452,
297,450,
294,445,
293,440,
294,437,
292,437,
289,436,
288,433,
281,429,
284,427,
279,428,
278,427,
272,427,
269,422,
269,423,
264,424,
263,425,
263,424,
261,423,
258,420,
258,426,
254,427,
252,428,
252,425,
252,426,
249,426,
246,430,
241,432,
244,429,
238,429,
239,434,
238,436,
237,436,
236,436,
234,437,
236,439,
237,441,
236,442,
236,441,
238,441,
237,444,
241,446,
238,446,
241,443,
240,445,
241,447,
242,447,
241,451,
242,448,
245,447,
247,450,
247,451,
247,451,
248,451,
250,449,
251,451,
252,456,
254,455,
254,455,
252,453,
255,454,
256,455,
258,456,
256,456,
256,451,
256,456,
257,458,
255,459,
256,454,
256,455,
257,454,
253,458,
254,458,
252,456,
252,456,
252,456,
252,459,
251,460,
249,461,
251,464,
251,464,
253,473,
254,478,
255,485,
253,491,
260,500,
260,511,
263,523,
268,538,
276,549,
283,564,
293,586,
302,604,
311,620,
325,638,
338,654,
351,675,
365,693,
380,710,
392,723,
412,737,
430,748,
444,760,
459,770,
473,773,
487,774,
502,779,
515,780,
525,775,
533,771,
543,763,
548,757,
556,750,
559,740,
562,728,
563,715,
566,702,
565,691,
564,677,
562,661,
558,641,
556,628,
552,617,
547,604,
539,587,
530,573,
522,559,
514,547,
507,538,
492,527,
484,511,
475,501,
466,496,
453,487,
443,479,
431,469,
421,464,
409,458,
400,453,
389,448,
381,440,
368,433,
358,432,
352,427,
344,421,
331,416,
325,412,
317,408,
311,407,
304,407,
294,401,
288,399,
283,399,
277,401,
271,401,
264,399,
260,399,
256,401,
251,404,
247,408,
245,408,
243,411,
241,416,
239,420,
239,425,
238,427,
237,429,
240,436,
240,442,
240,446,
241,448,
244,452,
245,458,
246,461,
245,465,
250,467,
251,467,
251,472,
256,479,
257,480,
259,481,
261,480,
262,485,
266,487,
271,489,
272,489,
277,485,
278,485,
281,488,
283,489,
284,487,
286,485,
286,483,
285,484,
288,482,
287,482,
286,475,
286,474,
286,474,
286,473,
283,470,
284,465,
282,463,
281,461,
278,463,
278,458,
276,456,
275,452,
275,455,
274,452,
269,449,
269,446,
268,444,
264,445,
262,446,
261,443,
257,442,
257,438,
256,440,
248,439,
250,439,
248,436,
246,436,
246,438,
239,438,
243,439,
240,437,
240,438,
239,438,
239,440,
242,441,
241,441,
240,440,
240,441,
241,445,
240,446,
243,446,
246,446,
247,445,
245,448,
245,451,
246,451,
247,448,
246,451,
246,454,
245,455,
245,456,
244,454,
246,456,
246,460,
245,460,
246,461,
246,459,
247,460,
248,464,
248,465,
249,467,
246,464,
249,465,
249,468,
248,470,
249,467,
251,466,
251,466,
254,470,
253,471,
253,470,
256,470,
254,468,
257,472,
257,473,
259,472,
260,470,
260,471,
263,473,
265,477,
265,477,
262,474,
266,473,
266,475,
268,479,
267,479,
269,476,
270,476,
271,480,
269,482,
269,487,
272,485,
272,488,
275,492,
276,499,
277,505,
279,510,
284,518,
286,528,
289,541,
298,554,
305,567,
314,579,
322,597,
331,615,
341,630,
350,647,
361,663,
372,681,
388,699,
400,713,
411,726,
425,735,
442,746,
458,756,
468,767,
483,770,
495,770,
505,770,
516,770,
526,769,
535,762,
544,751,
548,743,
554,734,
557,726,
559,714,
562,698,
561,686,
561,674,
557,660,
552,644,
548,629,
541,613,
537,602,
529,586,
519,573,
515,558,
506,545,
497,536,
489,525,
480,514,
472,500,
461,492,
453,486,
443,479,
433,473,
426,465,
419,461,
409,457,
396,452,
390,448,
382,444,
374,439,
366,437,
358,434,
350,432,
344,429,
336,423,
332,423,
320,423,
317,424,
312,423,
310,419,
304,422,
298,425,
291,425,
288,426,
283,426,
284,429,
277,433,
276,438,
273,438,
272,440,
271,446,
268,450,
268,456,
267,459,
265,460,
271,466,
270,472,
270,478,
269,480,
273,482,
274,486,
275,491,
279,494,
277,497,
277,497,
284,499,
283,504,
285,505,
284,505,
289,505,
289,505,
292,508,
294,508,
293,506,
296,505,
299,502,
296,502,
300,503,
300,501,
301,497,
301,494,
301,493,
302,492,
300,490,
301,486,
300,482,
299,482,
296,480,
298,479,
299,474,
298,473,
294,470,
295,472,
293,469,
290,465,
288,461,
288,463,
287,462,
282,461,
282,458,
279,454,
276,455,
272,456,
271,454,
270,452,
270,449,
267,451,
266,450,
263,451,
262,450,
258,448,
258,447,
258,450,
254,452,
251,448,
255,448,
253,447,
255,449,
256,450,
254,450,
254,446,
256,449,
257,450,
255,451,
257,451,
253,449,
255,449,
251,452,
252,455,
252,454,
248,451,
249,453,
250,454,
246,456,
247,456,
246,454,
246,455,
245,459,
243,462,
241,461,
243,459,
245,460,
244,462,
244,465,
242,466,
244,463,
241,462,
242,466,
241,468,
239,467,
242,466,
243,465,
243,468,
240,469,
241,470,
244,468,
243,467,
246,470,
247,470,
246,471,
248,469,
251,468,
252,470,
254,473,
253,474,
256,470,
259,471,
262,474,
260,480,
265,483,
265,484,
266,486,
271,492,
273,498,
274,509,
274,515,
282,524,
288,537,
294,551,
303,566,
311,579,
324,593,
334,610,
342,631,
357,648,
369,666,
386,680,
398,697,
413,714,
430,727,
443,739,
459,748,
472,756,
485,765,
498,770,
510,773,
522,768,
531,769,
540,766,
548,766,
553,757,
559,745,
565,737,
567,730,
566,718,
567,707,
567,691,
566,676,
565,665,
560,654,
557,639,
549,621,
543,606,
535,594,
530,583,
520,569,
513,556,
503,541,
494,532,
484,524,
476,515,
468,502,
458,491,
449,484,
444,480,
434,473,
423,467,
418,458,
409,454,
398,451,
392,446,
384,440,
375,434,
367,431,
360,430,
352,427,
341,422,
337,418,
332,417,
325,417,
315,418,
308,414,
302,411,
293,410,
283,414,
280,414,
274,415,
270,414,
266,416,
261,419,
256,424,
253,425,
246,425,
247,430,
245,436,
242,439,
240,443,
241,445,
239,450,
241,456,
239,461,
244,464,
246,464,
248,468,
249,473,
251,479,
254,482,
255,482,
257,486,
262,491,
261,493,
267,497,
266,499,
270,497,
272,501,
273,503,
275,504,
279,503,
283,502,
286,506,
288,506,
291,506,
287,505,
292,500,
293,501,
297,501,
298,500,
301,498,
301,494,
301,494,
305,493,
302,491,
304,488,
305,483,
306,483,
305,483,
303,482,
302,478,
302,475,
300,473,
300,472,
297,472,
296,467,
293,467,
292,465,
290,466,
288,465,
281,461,
282,456,
279,456,
277,457,
274,458,
272,456,
270,454,
271,454,
267,453,
264,456,
262,454,
262,452,
262,450,
260,452,
257,454,
256,452,
257,452,
256,449,
254,453,
253,457,
253,456,
253,453,
253,453,
252,456,
254,458,
250,459,
251,455,
249,454,
249,459,
248,459,
248,460,
249,457,
250,457,
247,460,
251,460,
252,463,
249,462,
250,462,
249,462,
252,463,
250,465,
251,465,
252,464,
253,465,
250,468,
248,468,
249,468,
248,466,
250,468,
248,470,
249,471,
246,469,
244,468,
249,470,
247,470,
246,472,
247,473,
249,470,
247,471,
250,475,
253,476,
252,477,
256,480,
260,480,
259,487,
260,492,
263,497,
268,502,
271,510,
277,520,
281,530,
283,543,
293,554,
300,569,
310,586,
316,602,
330,617,
341,632,
353,648,
367,669,
380,686,
393,698,
410,709,
423,723,
436,736,
450,746,
465,752,
477,754,
491,757,
502,761,
511,761,
522,757,
532,753,
541,744,
547,735,
551,729,
555,719,
555,707,
559,691,
557,677,
554,666,
555,652,
552,636,
547,621,
544,605,
539,593,
529,578,
523,564,
515,550,
509,538,
496,526,
490,513,
481,503,
473,489,
460,483,
451,476,
440,467,
429,458,
420,452,
411,447,
400,441,
391,439,
380,432,
374,427,
363,424,
356,423,
347,421,
334,417,
330,413,
320,411,
313,411,
304,410,
299,408,
293,407,
289,407,
280,410,
274,411,
270,412,
264,413,
258,412,
254,417,
252,422,
250,425,
246,427,
245,429,
240,432,
242,439,
242,442,
240,444,
241,447,
242,454,
239,460,
240,461,
244,465,
246,467,
249,474,
250,479,
249,481,
253,484,
254,485,
256,489,
260,492,
262,496,
264,493,
266,495,
270,499,
271,501,
272,502,
275,501,
275,498,
277,502,
278,502,
280,500,
282,502,
287,497,
290,498,
287,501,
291,498,
294,496,
294,492,
296,491,
299,490,
299,489,
300,488,
300,485,
299,483,
298,484,
295,481,
294,479,
289,473,
291,473,
290,474,
286,473,
285,470,
284,467,
281,466,
281,467,
281,464,
274,464,
273,462,
272,459,
272,462,
271,461,
268,460,
264,456,
268,454,
264,458,
261,458,
259,460,
258,457,
260,455,
258,457,
256,458,
258,458,
256,457,
256,454,
255,459,
255,460,
256,460,
255,460,
256,460,
253,463,
256,464,
256,464,
252,464,
254,461,
257,464,
255,467,
254,467,
256,468,
259,466,
257,468,
258,471,
253,471,
256,470,
255,468,
255,470,
255,474,
254,474,
254,472,
250,472,
253,472,
253,474,
252,476,
253,475,
255,473,
254,475,
255,478,
256,478,
253,478,
253,476,
257,477,
260,480,
259,480,
259,479,
262,479,
262,481,
264,483,
265,484,
266,484,
268,487,
267,489,
271,494,
276,499,
275,503,
281,508,
283,513,
287,526,
293,537,
298,548,
301,562,
313,574,
323,590,
329,605,
342,623,
352,636,
366,653,
377,670,
389,684,
406,700,
418,709,
433,720,
447,731,
459,740,
471,745,
483,748,
494,749,
508,751,
519,749,
526,747,
535,740,
544,730,
548,723,
552,716,
557,704,
560,691,
562,677,
558,664,
563,652,
557,638,
557,624,
549,608,
546,595,
541,583,
533,569,
527,555,
520,541,
512,529,
502,517,
491,508,
484,498,
472,487,
463,478,
452,472,
440,465,
431,458,
417,451,
411,445,
402,440,
394,438,
383,433,
375,425,
369,424,
354,422,
347,420,
340,417,
333,417,
322,411,
316,414,
309,412,
302,413,
297,410,
287,411,
281,415,
276,418,
266,419,
261,419,
258,420,
253,426,
251,431,
250,434,
247,436,
247,437,
246,444,
243,449,
246,454,
246,456,
247,461,
249,466,
250,471,
255,475,
255,479,
259,479,
261,485,
264,491,
270,495,
271,497,
275,496,
275,501,
280,505,
282,506,
285,508,
288,507,
294,510,
294,509,
294,511,
296,511,
299,512,
301,511,
304,511,
305,514,
302,512,
307,508,
310,509,
311,510,
312,509,
311,506,
312,502,
311,503,
312,502,
312,501,
312,498,
310,492,
314,494,
310,491,
309,493,
307,488,
308,484,
306,482,
305,485,
303,483,
301,480,
298,476,
298,475,
294,474,
294,474,
287,475,
286,469,
287,466,
287,467,
284,469,
283,466,
280,461,
283,461,
281,464,
281,462,
280,463,
279,462,
282,459,
278,461,
276,462,
272,463,
271,461,
271,459,
271,461,
266,464,
268,464,
267,463,
266,461,
265,464,
269,467,
265,465,
266,468,
266,465,
266,466,
265,467,
264,469,
263,468,
261,467,
265,470,
265,474,
264,475,
264,472,
264,473,
265,474,
265,476,
265,480,
268,479,
269,482,
270,485,
272,489,
274,495,
277,500,
280,507,
282,514,
288,525,
291,538,
297,551,
307,562,
313,574,
323,592,
334,610,
343,627,
356,642,
369,656,
384,677,
397,694,
412,709,
426,720,
442,733,
458,746,
474,756,
487,762,
503,766,
517,767,
529,770,
541,771,
550,766,
559,760,
567,756,
575,748,
580,740,
584,729,
584,716,
586,702,
591,690,
590,680,
586,665,
585,651,
579,634,
575,620,
568,609,
561,596,
555,582,
547,566,
541,555,
533,544,
522,533,
512,520,
505,508,
495,498,
484,495,
474,485,
465,478,
454,467,
447,461,
433,457,
424,454,
416,447,
406,440,
399,436,
386,432,
378,430,
366,424,
358,420,
349,417,
338,418,
333,417,
322,415,
315,413,
307,411,
302,415,
295,418,
290,417,
283,417,
277,416,
273,421,
268,425,
266,428,
263,431,
265,433,
261,438,
261,444,
258,448,
254,449,
253,452,
251,459,
250,463,
254,470,
254,473,
260,475,
257,478,
264,484,
266,490,
268,491,
274,492,
275,497,
278,501,
280,502,
283,503,
289,502,
290,504,
292,506,
294,508,
297,508,
298,506,
303,508,
305,507,
304,507,
306,506,
306,504,
307,504,
308,504,
308,502,
308,502,
309,495,
310,495,
306,495,
308,494,
308,491,
307,487,
310,483,
308,484,
304,483,
305,479,
303,474,
305,473,
303,473,
298,472,
298,469,
298,465,
297,462,
296,461,
292,462,
291,459,
289,458,
285,455,
285,458,
282,457,
281,458,
278,450,
277,453,
274,452,
272,455,
270,454,
268,451,
267,451,
267,454,
264,454,
261,454,
259,453,
262,453,
260,456,
257,456,
257,457,
257,457,
257,456,
260,458,
260,460,
260,462,
258,461,
258,462,
262,464,
262,464,
259,465,
260,465,
260,464,
258,467,
260,468,
260,466,
262,470,
263,468,
264,471,
267,473,
264,474,
261,476,
266,477,
264,481,
268,488,
267,491,
270,497,
274,502,
275,511,
279,525,
288,536,
292,551,
301,565,
310,580,
318,596,
329,618,
342,637,
352,653,
371,673,
387,695,
403,714,
417,729,
439,743,
451,756,
471,770,
485,782,
501,789,
515,791,
537,794,
547,797,
560,796,
570,793,
582,784,
590,777,
598,770,
604,762,
607,748,
609,737,
610,719,
613,709,
609,694,
606,681,
600,661,
598,647,
590,635,
582,620,
575,605,
563,589,
553,573,
545,563,
532,550,
521,540,
508,529,
495,517,
483,508,
471,501,
455,493,
443,486,
428,479,
416,472,
404,471,
392,465,
382,460,
368,453,
359,448,
349,442,
337,442,
329,439,
323,433,
316,430,
311,429,
303,427,
299,425,
292,420,
294,420,
290,420,
288,421,
287,420,
286,418,
284,418,
283,422,
284,424,
285,425,
287,428,
286,430,
287,434,
288,440,
288,442,
285,444,
290,446,
291,452,
294,457,
292,461,
295,463,
297,469,
297,474,
301,478,
302,481,
298,480,
302,483,
303,489,
303,493,
304,495,
305,498,
308,497,
305,500,
308,501,
307,503,
308,502,
309,502,
310,502,
311,503,
308,503,
311,501,
309,499,
309,500,
305,498,
303,496,
304,495,
301,493,
300,491,
298,489,
294,487,
291,486,
289,481,
285,482,
284,481,
283,478,
280,475,
279,471,
277,471,
276,469,
272,467,
269,464,
269,462,
265,460,
264,461,
261,460,
262,460,
261,455,
259,456,
256,456,
256,458,
252,456,
254,452,
248,451,
250,452,
248,454,
247,453,
243,452,
245,450,
244,453,
242,454,
242,454,
237,452,
242,452,
243,453,
240,453,
241,455,
241,453,
242,453,
244,455,
244,456,
244,458,
244,460,
247,456,
248,459,
248,459,
248,461,
246,460,
251,460,
253,459,
252,462,
252,463,
253,460,
253,463,
256,464,
254,468,
251,467,
253,468,
253,466,
252,468,
252,473,
251,474,
251,477,
251,478,
250,486,
253,495,
252,501,
255,508,
258,517,
260,530,
259,547,
268,562,
276,580,
280,594,
296,616,
304,638,
318,660,
328,679,
341,700,
355,718,
371,739,
383,755,
399,770,
412,781,
429,790,
442,802,
452,808,
462,811,
475,813,
485,808,
493,808,
498,805,
506,800,
509,788,
511,779,
513,772,
507,761,
503,746,
495,730,
498,715,
491,702,
482,686,
471,670,
462,654,
450,637,
438,623,
425,610,
413,599,
398,582,
384,569,
370,555,
355,545,
340,535,
323,525,
307,511,
295,503,
281,497,
266,489,
254,482,
242,474,
231,468,
213,463,
203,457,
191,452,
178,444,
171,441,
158,438,
149,432,
133,428,
125,422,
115,419,
107,419,
99,417,
84,415,
82,413,
74,412,
64,414,
57,413,
47,414,
45,414,
39,415,
32,418,
32,422,
30,425,
25,423,
26,429,
26,435,
23,440,
24,443,
27,446,
28,450,
32,456,
32,461,
36,466,
41,467,
47,471,
51,475,
56,482,
61,484,
67,487,
69,487,
81,491,
89,496,
90,498,
97,498,
106,499,
110,499,
116,498,
124,503,
132,502,
140,500,
147,500,
154,500,
159,500,
167,498,
173,496,
175,492,
180,493,
190,492,
189,493,
196,488,
201,485,
203,484,
208,483,
210,481,
214,476,
216,473,
220,472,
222,472,
223,469,
225,464,
228,462,
230,462,
229,462,
228,462,
227,457,
227,456,
225,455,
226,456,
221,453,
221,451,
219,448,
216,448,
216,450,
212,449,
210,447,
206,444,
206,447,
199,446,
198,445,
194,446,
190,444,
187,445,
183,447,
180,448,
176,448,
175,446,
172,447,
170,447,
169,450,
166,450,
162,449,
162,449,
159,450,
163,454,
159,454,
156,453,
158,456,
159,457,
156,458,
156,460,
160,457,
160,459,
162,460,
162,462,
162,462,
164,461,
162,461,
166,464,
163,465,
166,467,
168,466,
168,465,
167,468,
168,468,
170,469,
168,467,
172,467,
175,470,
177,471,
175,472,
180,466,
184,468,
186,471,
183,474,
186,474,
188,471,
191,472,
194,473,
192,476,
196,478,
197,480,
203,483,
206,489,
211,499,
214,506,
219,514,
221,525,
227,540,
231,557,
234,573,
240,589,
245,609,
250,633,
261,654,
265,678,
274,699,
277,716,
293,739,
298,761,
309,776,
319,790,
329,801,
341,811,
352,816,
366,825,
377,827,
390,825,
403,822,
415,820,
428,814,
440,808,
448,795,
464,783,
475,772,
489,758,
498,745,
511,726,
522,712,
533,698,
541,682,
552,668,
564,648,
574,633,
583,620,
591,606,
601,593,
603,575,
618,562,
626,552,
635,543,
638,532,
644,520,
645,508,
645,501,
645,495,
645,486,
646,476,
645,470,
645,467,
646,461,
644,456,
646,450,
645,444,
645,441,
646,439,
645,434,
645,430,
645,425,
645,424,
645,423,
645,421,
645,418,
645,417,
645,417,
645,418,
645,419,
646,419,
645,419,
644,423,
644,426,
645,429,
646,432,
646,432,
645,436,
645,443,
644,447,
633,452,
624,454,
619,458,
611,463,
601,469,
595,471,
587,474,
575,478,
567,485,
556,488,
547,491,
540,491,
531,493,
523,497,
513,499,
509,501,
501,498,
494,498,
489,502,
482,502,
474,502,
473,497,
465,500,
460,502,
452,503,
447,500,
442,493,
435,492,
431,494,
423,493,
419,491,
409,487,
408,483,
402,481,
395,481,
392,480,
382,476,
381,473,
374,472,
368,472,
362,468,
359,466,
352,461,
352,461,
348,461,
342,458,
340,456,
339,453,
336,453,
331,451,
328,450,
322,449,
325,446,
322,445,
320,447,
319,446,
317,445,
310,441,
311,443,
311,441,
310,444,
306,441,
305,441,
303,440,
300,442,
298,443,
299,444,
296,442,
295,444,
295,445,
291,445,
288,447,
290,445,
286,445,
288,448,
285,451,
286,451,
284,447,
284,449,
286,453,
284,455,
283,456,
283,456,
283,454,
282,459,
281,459,
280,461,
280,459,
277,459,
280,462,
279,464,
281,464,
279,464,
282,464,
280,464,
283,467,
282,469,
281,466,
282,465,
283,466,
284,467,
284,469,
280,467,
283,465,
284,468,
284,469,
283,469,
282,469,
283,466,
284,469,
281,472,
282,471,
283,468,
284,470,
285,471,
283,472,
282,473,
281,474,
279,474,
281,479,
282,484,
282,488,
282,494,
286,497,
288,505,
292,517,
295,530,
302,543,
308,557,
314,572,
326,592,
337,612,
347,633,
362,652,
376,673,
392,696,
407,716,
424,735,
445,748,
462,765,
481,779,
502,793,
517,805,
534,807,
551,814,
567,817,
577,818,
592,816,
606,809,
618,800,
624,794,
628,785,
636,774,
637,762,
643,745,
644,734,
644,721,
643,704,
640,689,
639,669,
636,655,
631,641,
623,626,
614,609,
605,593,
595,581,
586,570,
572,557,
563,545,
553,532,
544,524,
531,517,
520,506,
508,499,
496,491,
486,483,
471,480,
465,474,
455,468,
442,460,
433,454,
425,451,
414,447,
401,441,
394,436,
385,435,
376,434,
369,432,
358,429,
349,423,
345,422,
335,423,
329,424,
322,425,
317,424,
311,424,
307,430,
304,432,
299,434,
297,437,
293,439,
289,445,
291,449,
291,453,
287,456,
291,459,
289,466,
289,472,
293,478,
294,482,
297,483,
300,489,
303,496,
304,498,
307,499,
311,501,
317,506,
320,510,
322,513,
323,509,
328,514,
331,516,
335,519,
338,519,
339,518,
340,516,
341,515,
346,519,
346,516,
344,514,
345,511,
346,509,
338,513,
343,506,
344,504,
343,498,
343,496,
342,496,
339,493,
339,490,
336,484,
333,481,
331,483,
327,481,
325,475,
323,471,
322,470,
317,469,
318,465,
314,461,
312,457,
310,456,
308,457,
304,454,
301,453,
299,450,
293,448,
292,447,
289,446,
284,444,
281,442,
277,440,
274,442,
272,444,
270,442,
267,442,
267,439,
266,442,
265,442,
263,442,
259,440,
260,441,
257,443,
257,445,
257,445,
254,446,
257,443,
254,447,
253,446,
251,449,
252,447,
252,447,
252,451,
247,452,
251,452,
246,451,
251,452,
251,455,
250,457,
250,457,
250,456,
251,457,
252,459,
255,462,
250,462,
251,462,
251,459,
256,464,
257,462,
257,465,
258,465,
259,463,
259,466,
256,466,
260,467,
261,466,
262,463,
262,464,
261,469,
263,467,
263,469,
265,468,
264,467,
265,470,
266,471,
263,474,
266,472,
270,475,
268,481,
274,487,
275,491,
279,496,
279,504,
285,518,
287,529,
296,543,
303,558,
313,570,
317,591,
333,612,
345,633,
360,653,
375,672,
391,693,
407,716,
423,734,
441,746,
462,762,
477,777,
491,788,
508,799,
523,802,
539,807,
553,808,
565,811,
576,807,
586,803,
596,795,
604,790,
609,779,
617,770,
616,757,
620,741,
620,728,
619,714,
615,701,
615,684,
610,670,
606,654,
602,640,
592,627,
586,613,
578,595,
570,581,
560,570,
551,558,
541,547,
531,534,
520,525,
510,517,
502,508,
489,501,
479,491,
472,484,
457,479,
445,472,
433,465,
427,458,
417,453,
409,446,
398,444,
387,439,
379,432,
370,427,
359,426,
351,421,
344,420,
337,416,
325,409,
319,413,
311,412,
307,414,
300,411,
297,411,
291,414,
286,416,
282,419,
275,419,
272,421,
271,428,
266,431,
267,436,
265,440,
267,444,
268,448,
268,456,
266,460,
263,462,
270,469,
275,475,
277,481,
277,484,
280,488,
286,489,
286,495,
289,498,
292,501,
296,503,
298,502,
301,507,
305,508,
306,510,
307,508,
308,509,
311,508,
313,511,
316,508,
318,506,
318,502,
320,502,
321,502,
320,500,
317,497,
320,492,
319,490,
319,490,
317,488,
318,485,
316,479,
316,477,
314,476,
311,474,
311,471,
310,467,
307,464,
305,464,
303,462,
298,458,
298,454,
292,451,
291,453,
287,451,
287,451,
283,449,
280,445,
278,446,
274,446,
270,445,
269,443,
266,442,
265,443,
261,443,
263,442,
256,441,
258,440,
257,442,
256,443,
255,442,
254,442,
254,441,
252,442,
253,444,
251,445,
251,444,
248,443,
252,446,
251,447,
247,447,
248,446,
246,446,
247,449,
249,451,
248,451,
249,452,
246,450,
249,454,
248,457,
247,459,
247,457,
249,455,
251,457,
248,461,
251,463,
254,462,
253,460,
254,463,
254,466,
255,465,
256,464,
259,463,
259,463,
260,466,
261,468,
262,467,
264,467,
264,466,
265,470,
264,470,
264,470,
268,471,
266,468,
268,472,
268,472,
269,472,
268,470,
268,470,
267,471,
263,473,
265,472,
265,468,
269,472,
266,471,
263,474,
264,475,
266,476,
266,476,
270,481,
270,486,
270,492,
274,494,
278,503,
279,515,
286,527,
293,540,
301,554,
310,568,
323,589,
335,608,
346,627,
361,647,
376,666,
395,689,
412,711,
426,729,
445,747,
460,761,
482,777,
497,789,
512,801,
525,808,
541,811,
554,816,
568,817,
578,816,
587,812,
596,803,
604,798,
605,790,
609,778,
615,766,
618,752,
618,737,
618,725,
613,709,
611,695,
608,678,
602,661,
597,647,
588,632,
581,615,
574,600,
566,585,
555,575,
548,561,
540,548,
530,536,
522,523,
511,516,
499,505,
485,496,
473,489,
467,480,
452,474,
441,469,
432,463,
420,453,
411,447,
401,445,
391,439,
380,435,
373,428,
364,424,
355,422,
348,417,
339,414,
330,412,
323,410,
317,408,
310,409,
303,407,
300,407,
291,405,
288,408,
278,412,
274,412,
271,414,
268,415,
266,420,
263,425,
262,429,
260,431,
261,434,
261,439,
265,442,
260,451,
261,457,
262,458,
267,463,
267,470,
265,474,
271,477,
273,478,
275,485,
277,489,
278,494,
279,493,
285,495,
287,499,
289,501,
292,502,
293,503,
293,501,
300,503,
304,503,
303,504,
306,504,
308,503,
307,498,
308,500,
305,499,
308,496,
307,495,
306,491,
308,492,
307,490,
307,486,
305,481,
306,477,
304,478,
303,478,
300,474,
297,469,
296,468,
295,467,
290,466,
288,464,
286,461,
285,457,
286,457,
282,455,
280,455,
279,450,
277,450,
277,450,
275,449,
271,448,
272,446,
271,444,
268,443,
268,445,
265,444,
260,442,
259,440,
259,440,
257,443,
257,442,
253,442,
251,440,
250,443,
246,442,
248,447,
247,442,
245,442,
245,443,
245,447,
243,447,
242,447,
242,446,
243,448,
240,450,
243,452,
242,452,
245,451,
246,451,
247,454,
245,456,
247,457,
247,457,
245,454,
249,458,
250,461,
248,462,
248,459,
252,461,
253,463,
253,464,
253,464,
254,463,
257,462,
255,464,
256,466,
257,468,
257,466,
259,465,
260,468,
261,469,
262,470,
258,468,
261,470,
262,470,
261,470,
259,472,
261,470,
260,469,
262,472,
262,474,
260,474,
263,473,
262,474,
263,476,
265,478,
264,481,
265,487,
268,489,
271,495,
272,505,
276,513,
281,522,
286,532,
298,546,
301,563,
315,579,
327,596,
337,611,
353,630,
368,652,
386,671,
399,691,
416,706,
431,724,
447,742,
466,757,
479,769,
496,776,
511,784,
525,792,
537,795,
549,797,
560,792,
567,788,
576,788,
585,782,
589,773,
595,761,
600,749,
602,739,
601,726,
598,713,
597,694,
596,681,
592,665,
587,653,
581,637,
574,623,
566,604,
559,591,
549,579,
541,565,
532,550,
522,539,
510,527,
501,518,
492,509,
480,499,
469,487,
455,482,
448,477,
437,470,
425,461,
416,453,
404,450,
394,446,
385,437,
375,434,
369,426,
359,424,
350,421,
341,419,
330,416,
322,412,
315,412,
305,412,
301,412,
293,411,
288,409,
282,413,
278,416,
274,417,
264,420,
266,422,
262,425,
257,431,
259,435,
258,442,
259,443,
264,446,
263,453,
262,460,
265,464,
269,468,
271,471,
274,478,
281,485,
280,488,
281,491,
286,492,
291,497,
295,502,
301,508,
303,506,
304,510,
308,510,
308,514,
308,516,
311,514,
312,512,
316,515,
315,513,
320,513,
314,511,
318,510,
317,510,
315,509,
320,509,
318,504,
320,501,
319,498,
319,498,
315,494,
314,492,
314,487,
312,486,
310,485,
306,480,
305,479,
307,474,
303,473,
301,470,
300,469,
298,466,
297,461,
296,460,
296,458,
292,459,
291,457,
290,454,
290,455,
288,455,
285,453,
285,453,
285,449,
283,449,
281,449,
278,451,
278,450,
270,448,
274,448,
272,450,
273,450,
266,449,
268,449,
265,449,
266,451,
261,454,
265,451,
262,451,
263,449,
258,453,
258,455,
259,454,
254,452,
257,453,
258,455,
256,457,
256,456,
255,453,
254,453,
257,458,
254,456,
256,457,
255,456,
256,456,
254,459,
254,460,
253,463,
253,457,
254,460,
254,463,
251,461,
253,464,
254,464,
254,463,
254,466,
255,471,
253,475,
256,480,
260,484,
261,492,
265,501,
271,512,
273,522,
281,533,
292,548,
296,566,
309,583,
319,600,
336,616,
350,638,
366,659,
379,679,
395,697,
410,713,
428,734,
446,750,
460,764,
477,776,
491,783,
509,789,
523,797,
540,802,
546,803,
558,799,
569,797,
579,791,
585,787,
591,777,
600,767,
599,752,
602,744,
604,734,
602,720,
603,701,
600,688,
597,674,
591,662,
585,648,
581,632,
572,615,
567,603,
559,589,
551,576,
540,563,
530,550,
520,542,
509,531,
500,522,
489,511,
479,501,
469,493,
460,487,
448,481,
437,473,
427,463,
419,461,
409,456,
398,449,
388,442,
378,435,
372,433,
363,427,
352,423,
339,418,
334,416,
326,412,
316,412,
309,411,
302,410,
296,409,
289,409,
284,412,
279,414,
272,416,
270,416,
267,420,
265,424,
264,429,
263,433,
262,434,
264,440,
262,444,
260,452,
260,457,
262,459,
264,465,
266,472,
265,477,
268,480,
268,482,
269,486,
272,491,
274,497,
276,499,
278,501,
282,501,
285,503,
287,508,
289,506,
289,505,
295,504,
298,507,
298,509,
300,506,
300,506,
304,500,
306,502,
304,502,
303,500,
306,496,
310,493,
304,491,
309,492,
306,488,
306,485,
306,481,
306,480,
304,479,
302,476,
296,472,
299,468,
299,465,
299,466,
293,462,
292,459,
292,456,
290,455,
287,458,
285,454,
279,451,
282,449,
278,449,
277,446,
274,449,
273,446,
270,442,
269,443,
270,445,
266,445,
262,443,
264,442,
261,441,
259,445,
255,444,
256,445,
254,442,
253,442,
252,446,
251,447,
251,447,
248,443,
249,444,
252,448,
250,450,
252,450,
251,450,
252,447,
253,452,
252,451,
255,453,
252,451,
256,452,
254,455,
253,457,
254,456,
252,456,
252,454,
251,458,
252,460,
249,460,
251,458,
253,457,
251,459,
246,463,
250,463,
247,463,
250,463,
250,468,
249,471,
251,478,
251,480,
253,486,
256,495,
260,506,
262,516,
267,528,
279,539,
284,559,
296,578,
309,596,
316,613,
336,634,
349,655,
368,679,
383,699,
401,719,
421,734,
442,753,
456,773,
478,785,
493,796,
513,804,
530,811,
547,819,
561,823,
577,823,
591,820,
603,817,
613,813,
624,808,
627,799,
634,787,
637,775,
642,764,
642,753,
642,738,
641,724,
639,707,
637,695,
630,681,
620,667,
617,650,
611,637,
602,627,
589,613,
581,603,
572,586,
560,574,
551,565,
539,554,
528,544,
517,537,
508,526,
495,519,
483,512,
474,505,
464,495,
452,487,
446,484,
434,475,
426,472,
413,464,
407,455,
396,451,
384,447,
374,443,
363,439,
360,433,
353,431,
341,431,
335,425,
327,421,
320,419,
313,418,
307,424,
303,422,
295,423,
292,423,
290,426,
286,429,
283,432,
278,435,
281,436,
280,440,
277,447,
275,453,
278,458,
273,460,
277,463,
278,470,
278,477,
276,480,
282,481,
282,485,
285,489,
287,495,
288,496,
290,497,
292,497,
296,502,
297,505,
299,507,
300,505,
304,507,
305,508,
306,509,
307,507,
303,506,
307,504,
312,502,
311,504,
312,500,
310,499,
315,493,
312,492,
313,492,
311,489,
311,485,
310,480,
314,481,
310,476,
307,476,
305,470,
305,465,
304,465,
301,463,
298,460,
298,456,
297,450,
293,449,
293,448,
291,446,
288,446,
286,441,
282,440,
283,441,
283,440,
278,439,
278,436,
275,434,
273,433,
271,435,
268,435,
266,433,
264,433,
259,435,
260,436,
259,436,
254,435,
255,435,
256,437,
254,439,
249,438,
251,438,
252,436,
250,439,
249,442,
244,441,
247,439,
245,440,
245,443,
246,446,
241,446,
243,446,
244,447,
243,450,
241,449,
240,450,
241,448,
243,452,
241,452,
239,454,
242,455,
242,453,
245,452,
245,456,
246,457,
245,458,
247,454,
248,456,
248,459,
249,457,
249,459,
250,460,
251,458,
252,463,
253,463,
253,466,
254,466,
257,469,
258,477,
260,484,
262,490,
262,499,
269,509,
277,522,
288,539,
294,555,
303,573,
316,591,
327,611,
337,636,
357,659,
374,681,
392,702,
410,722,
429,746,
449,765,
466,781,
486,792,
506,806,
522,817,
542,825,
558,830,
571,833,
587,833,
602,835,
613,832,
620,827,
633,818,
640,809,
645,801,
646,790,
646,778,
646,763,
646,746,
646,738,
646,721,
646,707,
645,690,
646,675,
639,660,
632,649,
623,634,
614,621,
605,606,
599,593,
586,584,
575,575,
565,562,
557,551,
543,543,
531,534,
518,527,
509,515,
496,507,
485,503,
471,496,
463,488,
451,481,
440,472,
429,469,
419,465,
405,458,
394,453,
384,446,
381,442,
370,435,
358,434,
348,430,
341,424,
332,425,
326,424,
318,423,
306,421,
304,419,
299,421,
293,426,
289,428,
284,431,
284,431,
279,434,
280,440,
277,444,
276,449,
276,451,
276,457,
275,461,
275,469,
278,473,
281,475,
280,478,
281,484,
286,489,
290,493,
291,495,
293,494,
298,500,
299,502,
303,505,
302,504,
308,506,
312,510,
314,511,
314,509,
313,506,
315,505,
314,508,
319,508,
318,504,
322,500,
322,497,
322,496,
320,495,
320,494,
318,489,
320,485,
320,483,
318,482,
317,479,
314,474,
310,469,
310,467,
307,467,
304,463,
300,458,
302,454,
300,452,
299,451,
296,447,
293,444,
292,439,
290,437,
283,438,
283,435,
280,433,
277,429,
278,430,
275,430,
272,429,
268,428,
264,424,
262,424,
259,425,
259,424,
256,424,
254,423,
251,422,
248,424,
247,425,
247,428,
244,424,
243,426,
241,430,
239,432,
236,430,
237,433,
235,431,
238,435,
234,438,
239,440,
237,439,
237,439,
240,442,
238,442,
238,445,
240,446,
240,445,
239,448,
242,449,
242,452,
241,450,
243,450,
245,453,
243,454,
243,456,
239,454,
245,455,
244,455,
245,457,
244,458,
244,457,
249,456,
247,458,
247,459,
249,459,
248,459,
249,458,
247,457,
251,460,
250,458,
250,458,
247,460,
252,460,
254,463,
251,462,
252,462,
254,462,
251,466,
252,469,
252,475,
254,479,
257,482,
262,493,
268,504,
274,515,
277,525,
286,541,
295,558,
306,578,
321,599,
332,618,
347,638,
366,661,
383,687,
402,710,
419,731,
442,748,
460,766,
481,785,
503,799,
521,812,
541,820,
562,825,
575,831,
593,836,
612,836,
620,833,
636,829,
642,824,
645,818,
645,809,
646,796,
646,781,
645,773,
646,759,
646,745,
646,727,
645,712,
644,698,
646,683,
646,668,
645,652,
633,634,
625,622,
615,609,
602,598,
591,584,
580,569,
570,558,
557,549,
541,541,
530,530,
520,520,
509,515,
496,508,
482,500,
469,490,
458,481,
448,474,
436,472,
421,463,
411,459,
398,450,
391,444,
381,442,
369,438,
361,433,
353,429,
344,428,
336,427,
329,426,
323,427,
315,421,
307,425,
301,428,
298,432,
292,432,
291,436,
287,437,
286,444,
288,450,
284,453,
283,457,
284,459,
285,467,
285,476,
283,480,
290,481,
290,485,
295,493,
298,498,
299,501,
300,503,
305,503,
309,511,
313,515,
314,515,
315,515,
319,516,
322,518,
325,520,
325,520,
328,518,
327,516,
332,518,
331,517,
332,516,
334,512,
334,507,
335,507,
336,505,
334,504,
333,500,
331,495,
331,493,
331,489,
329,487,
324,483,
320,478,
318,475,
317,473,
318,471,
313,468,
310,462,
312,459,
309,458,
305,455,
304,452,
303,445,
300,443,
299,444,
296,440,
295,437,
290,431,
291,433,
287,433,
285,432,
283,432,
281,427,
280,426,
275,427,
274,426,
270,426,
270,427,
266,423,
265,427,
264,427,
262,428,
258,426,
257,426,
256,428,
250,429,
252,430,
247,429,
248,429,
248,430,
247,433,
244,435,
245,433,
243,434,
241,434,
240,438,
240,441,
239,438,
238,439,
236,439,
236,442,
234,445,
230,443,
234,443,
233,446,
235,446,
234,447,
234,448,
235,446,
236,449,
236,451,
235,450,
235,452,
237,448,
238,452,
239,454,
238,455,
240,455,
241,454,
242,459,
246,463,
246,469,
250,473,
252,478,
256,486,
261,497,
266,511,
272,521,
280,536,
292,552,
303,575,
315,596,
331,617,
344,636,
362,660,
377,686,
397,711,
416,730,
436,750,
457,764,
479,784,
498,799,
516,813,
537,821,
556,829,
571,838,
589,841,
603,844,
617,842,
631,838,
640,834,
645,829,
645,821,
646,809,
645,797,
646,788,
646,775,
646,763,
647,748,
645,731,
645,719,
646,703,
646,692,
646,674,
646,658,
636,646,
626,634,
614,621,
604,606,
593,595,
585,583,
571,573,
554,563,
546,554,
534,542,
523,534,
509,527,
498,519,
487,511,
472,500,
466,495,
454,490,
441,483,
429,473,
419,463,
410,460,
399,453,
387,447,
378,442,
369,436,
359,432,
352,431,
344,427,
332,424,
324,420,
321,418,
312,420,
305,422,
298,424,
291,425,
289,425,
286,431,
285,436,
281,438,
277,443,
277,443,
277,452,
275,458,
278,463,
275,465,
284,471,
284,475,
286,484,
287,488,
292,490,
296,493,
298,498,
299,502,
301,504,
304,504,
310,506,
314,511,
316,513,
319,512,
318,512,
321,509,
325,510,
326,510,
325,509,
327,506,
327,503,
328,501,
329,501,
326,497,
328,495,
328,489,
328,490,
325,486,
325,485,
323,478,
322,474,
318,469,
315,469,
315,466,
314,461,
307,453,
309,452,
309,453,
304,450,
298,447,
298,441,
299,440,
296,437,
295,435,
289,433,
288,429,
286,426,
278,426,
276,425,
269,423,
271,419,
267,417,
266,418,
263,418,
259,415,
258,416,
255,411,
252,415,
254,417,
249,417,
249,416,
249,414,
249,416,
244,417,
243,417,
241,417,
237,417,
238,418,
237,423,
235,425,
232,424,
236,423,
230,426,
233,429,
231,430,
231,429,
230,431,
228,433,
230,437,
227,439,
229,437,
230,436,
233,440,
232,442,
231,446,
232,445,
232,446,
232,447,
236,449,
238,449,
239,453,
238,449,
239,452,
241,452,
239,457,
236,457,
239,456,
242,457,
244,456,
242,459,
241,459,
243,456,
243,457,
244,459,
241,460,
244,461,
243,457,
243,458,
243,460,
246,460,
243,459,
247,455,
249,456,
248,459,
248,461,
246,458,
250,457,
248,456,
251,461,
251,461,
253,465,
254,467,
256,471,
259,479,
262,489,
268,497,
275,508,
279,520,
289,540,
298,559,
307,579,
319,598,
334,621,
350,649,
367,674,
383,701,
403,724,
424,749,
445,772,
464,794,
490,813,
508,829,
533,841,
552,856,
570,865,
591,875,
610,880,
628,879,
642,883,
645,882,
645,876,
646,870,
646,861,
646,852,
645,844,
645,833,
645,818,
646,803,
645,788,
645,777,
645,761,
645,748,
646,729,
645,715,
644,704,
646,689,
646,674,
646,658,
646,645,
646,634,
646,625,
645,611,
645,600,
645,589,
637,582,
624,574,
609,567,
598,557,
582,549,
569,543,
556,536,
540,527,
522,519,
511,508,
495,503,
484,498,
466,491,
451,484,
439,478,
426,471,
413,467,
401,461,
389,456,
380,449,
371,449,
362,447,
351,445,
340,442,
335,440,
328,441,
317,442,
315,444,
311,441,
307,444,
301,447,
301,452,
298,454,
296,456,
296,458,
297,464,
294,469,
291,472,
295,476,
293,477,
296,483,
297,487,
298,492,
298,492,
301,495,
306,496,
310,500,
312,504,
316,505,
317,502,
320,504,
325,506,
327,506,
327,505,
330,503,
331,501,
334,503,
336,502,
335,499,
335,496,
336,492,
335,491,
336,490,
332,487,
330,482,
331,478,
331,477,
329,473,
326,469,
325,466,
320,458,
321,459,
314,456,
310,452,
308,445,
306,443,
305,439,
300,440,
296,435,
292,429,
294,425,
288,424,
284,421,
281,419,
274,414,
274,412,
272,409,
270,409,
266,407,
261,403,
260,401,
260,402,
256,402,
251,402,
250,400,
247,397,
245,400,
244,400,
240,400,
237,399,
237,398,
235,400,
232,402,
232,402,
227,404,
227,403,
227,405,
229,406,
224,409,
225,409,
224,409,
224,411,
224,412,
225,415,
222,416,
223,416,
222,418,
220,421,
219,425,
216,425,
220,424,
220,425,
222,429,
220,432,
220,434,
219,433,
221,436,
217,438,
219,440,
218,440,
219,440,
219,438,
221,442,
221,445,
223,445,
225,446,
227,446,
231,450,
227,450,
228,451,
231,449,
233,449,
234,449,
235,451,
236,452,
239,450,
238,450,
238,451,
239,453,
242,454,
238,453,
242,451,
241,452,
243,451,
244,452,
244,452,
246,447,
247,451,
247,451,
247,451,
248,450,
248,450,
250,451,
248,453,
248,452,
248,453,
248,453,
250,458,
250,464,
254,470,
251,475,
256,481,
261,493,
264,506,
271,522,
279,536,
289,552,
302,575,
314,599,
332,624,
343,648,
362,671,
379,698,
397,723,
420,748,
438,770,
459,788,
479,808,
501,824,
522,842,
541,850,
561,857,
580,866,
600,872,
616,873,
629,873,
641,868,
646,860,
644,858,
646,852,
645,842,
646,829,
645,816,
645,803,
645,792,
646,776,
647,758,
646,743,
645,727,
645,716,
645,699,
646,684,
645,667,
645,651,
645,643,
645,628,
635,615,
626,601,
614,590,
600,582,
587,572,
574,561,
562,551,
550,545,
535,540,
517,530,
508,522,
497,513,
482,508,
466,497,
456,492,
445,483,
432,474,
422,467,
409,463,
396,458,
386,451,
377,443,
368,441,
357,438,
346,436,
339,433,
332,428,
324,426,
317,428,
309,429,
304,428,
299,426,
297,430,
294,433,
289,438,
285,442,
287,444,
284,447,
286,453,
287,457,
283,463,
287,464,
284,467,
288,475,
288,480,
291,484,
292,487,
296,488,
299,494,
300,495,
299,500,
304,501,
305,499,
311,504,
313,506,
314,506,
315,508,
317,505,
321,505,
322,507,
321,505,
321,503,
320,498,
324,498,
325,499,
322,496,
321,492,
323,487,
323,486,
320,482,
319,481,
318,477,
313,469,
313,466,
309,466,
307,461,
303,457,
305,452,
300,448,
300,446,
297,443,
292,440,
291,434,
293,432,
285,429,
284,429,
281,425,
279,420,
279,419,
275,419,
273,418,
267,414,
266,411,
264,410,
260,410,
257,411,
255,410,
254,406,
251,404,
248,406,
247,408,
241,405,
241,402,
238,403,
239,406,
236,408,
234,409,
233,406,
233,407,
231,408,
230,411,
226,412,
225,413,
226,412,
227,415,
226,417,
224,418,
226,419,
228,417,
221,420,
225,423,
224,427,
224,426,
227,425,
226,428,
222,432,
226,432,
226,433,
228,432,
230,437,
227,439,
228,440,
229,442,
231,440,
231,444,
234,445,
234,445,
232,447,
237,445,
238,447,
238,451,
239,452,
240,451,
238,450,
240,449,
240,451,
238,452,
239,451,
239,450,
241,452,
238,451,
239,453,
240,454,
239,451,
240,451,
239,453,
244,452,
240,452,
241,448,
239,450,
239,453,
241,454,
238,452,
237,453,
237,453,
240,457,
240,461,
242,465,
241,470,
248,473,
253,486,
257,495,
260,510,
267,518,
278,536,
289,558,
301,578,
310,599,
325,620,
343,643,
353,668,
373,695,
388,719,
408,740,
427,760,
443,781,
467,801,
484,815,
502,828,
522,836,
543,845,
561,854,
576,857,
591,857,
604,854,
621,852,
633,848,
639,841,
644,831,
646,819,
645,808,
645,797,
646,784,
646,768,
646,749,
646,735,
645,723,
646,706,
646,689,
639,671,
631,656,
622,642,
612,629,
602,612,
592,599,
580,584,
566,576,
556,566,
545,556,
528,542,
519,533,
509,526,
496,520,
483,508,
469,500,
458,490,
448,485,
434,480,
419,469,
410,462,
398,452,
383,449,
374,444,
366,439,
352,428,
345,424,
334,421,
328,419,
315,414,
309,409,
302,408,
298,411,
291,412,
285,413,
276,415,
283,414,
275,418,
268,423,
269,426,
268,427,
266,431,
267,436,
265,443,
266,448,
267,454,
269,456,
270,464,
277,471,
274,475,
278,480,
283,481,
283,487,
286,492,
288,495,
290,496,
293,497,
295,501,
296,507,
301,506,
299,508,
301,504,
304,505,
307,504,
305,504,
307,504,
307,500,
310,497,
309,497,
310,496,
306,491,
310,486,
309,483,
310,482,
308,479,
307,474,
307,468,
305,465,
304,462,
298,464,
298,458,
297,452,
295,448,
292,446,
291,445,
287,442,
286,432,
284,433,
282,433,
279,430,
274,429,
270,424,
269,420,
269,418,
265,419,
262,416,
260,411,
259,410,
259,412,
256,412,
252,413,
250,406,
249,407,
249,410,
245,409,
241,411,
238,406,
241,406,
238,406,
232,409,
232,409,
231,409,
234,408,
229,409,
229,412,
224,411,
223,410,
220,412,
222,414,
221,412,
221,418,
215,416,
220,416,
220,419,
219,424,
218,426,
217,427,
215,425,
218,428,
219,432,
216,433,
214,432,
219,433,
220,433,
217,437,
217,438,
216,438,
217,439,
219,440,
218,443,
216,445,
217,445,
216,444,
217,443,
217,446,
220,449,
221,449,
223,446,
225,447,
226,452,
226,454,
227,453,
231,451,
235,453,
236,456,
232,456,
237,456,
235,454,
240,455,
242,458,
242,460,
243,459,
242,459,
248,457,
245,457,
250,461,
247,460,
249,459,
247,456,
249,458,
249,460,
249,458,
249,459,
252,456,
246,457,
246,459,
247,456,
248,455,
247,455,
248,455,
250,459,
249,458,
247,457,
250,455,
250,458,
246,458,
249,463,
251,465,
252,465,
256,471,
255,477,
259,487,
260,494,
266,504,
277,519,
281,535,
290,551,
296,570,
312,586,
325,610,
340,635,
357,659,
371,682,
388,704,
408,729,
426,752,
444,774,
464,793,
488,808,
504,821,
523,836,
543,845,
560,855,
575,857,
591,858,
608,861,
620,861,
628,856,
636,846,
643,837,
645,830,
646,819,
645,806,
645,791,
645,775,
646,762,
646,749,
646,732,
646,717,
645,699,
646,684,
640,669,
636,656,
626,638,
617,624,
609,611,
598,600,
584,588,
576,575,
564,563,
555,553,
542,550,
531,538,
520,530,
508,519,
498,513,
483,508,
475,503,
462,496,
450,488,
442,481,
427,479,
416,471,
406,465,
396,457,
383,451,
376,448,
364,445,
356,440,
346,435,
337,430,
329,428,
320,429,
313,428,
305,425,
299,425,
294,426,
285,429,
282,430,
280,430,
273,431,
268,436,
268,443,
266,448,
267,449,
267,453,
267,460,
266,465,
268,470,
270,470,
272,475,
271,481,
279,488,
279,489,
281,490,
286,493,
290,498,
290,503,
293,504,
298,503,
303,506,
303,505,
309,509,
310,508,
309,505,
314,504,
316,506,
314,504,
314,504,
314,500,
315,497,
314,493,
314,496,
315,489,
315,488,
314,481,
315,481,
312,477,
310,476,
310,470,
307,467,
307,463,
303,465,
301,459,
300,456,
297,450,
296,446,
292,447,
288,444,
286,440,
284,435,
280,432,
277,434,
274,431,
269,429,
265,423,
264,421,
263,423,
259,421,
255,419,
255,416,
250,414,
252,416,
248,415,
245,413,
241,412,
241,410,
237,413,
234,413,
231,412,
228,411,
226,411,
224,414,
222,412,
224,415,
221,412,
221,413,
219,415,
217,417,
218,419,
216,418,
214,417,
216,421,
214,423,
215,424,
215,424,
215,423,
218,426,
216,430,
217,432,
217,432,
221,430,
220,432,
220,436,
218,436,
220,437,
222,435,
221,439,
223,441,
223,444,
224,445,
227,443,
228,446,
228,449,
228,452,
229,450,
231,450,
232,451,
232,454,
230,455,
233,455,
233,453,
235,455,
236,458,
238,458,
238,460,
236,455,
238,456,
239,458,
238,460,
239,459,
239,460,
239,459,
238,462,
239,462,
241,464,
242,462,
242,459,
243,463,
243,463,
242,464,
244,458,
242,461,
244,462,
244,461,
245,462,
246,461,
246,460,
245,461,
249,462,
247,462,
246,459,
246,459,
243,459,
246,462,
244,462,
245,462,
247,460,
247,463,
249,466,
249,468,
251,472,
252,473,
253,479,
259,490,
260,497,
267,508,
270,517,
283,534,
291,548,
299,568,
310,585,
322,603,
337,627,
355,650,
369,672,
389,695,
402,714,
424,738,
444,757,
460,776,
479,792,
500,803,
519,815,
536,826,
551,832,
569,838,
579,837,
595,836,
605,837,
615,831,
622,824,
631,816,
640,806,
640,796,
642,784,
646,771,
646,756,
645,737,
645,726,
641,712,
636,697,
630,675,
627,662,
620,648,
610,634,
603,620,
591,603,
581,589,
570,580,
557,570,
544,559,
531,545,
521,536,
507,529,
492,522,
483,512,
470,503,
464,494,
448,488,
438,486,
425,481,
417,472,
407,464,
398,459,
389,456,
377,452,
369,446,
362,440,
349,437,
341,434,
331,430,
322,429,
313,424,
305,425,
303,423,
295,428,
289,426,
285,427,
283,428,
280,432,
275,435,
272,437,
272,439,
269,444,
268,450,
267,456,
266,460,
266,462,
271,468,
275,475,
275,480,
275,485,
281,487,
284,491,
289,498,
292,503,
290,505,
298,509,
296,510,
300,514,
304,518,
304,520,
307,517,
310,518,
313,517,
313,522,
314,520,
320,514,
320,514,
321,513,
325,513,
324,510,
326,506,
325,500,
324,500,
323,498,
319,495,
321,490,
319,485,
317,482,
316,482,
315,478,
310,473,
307,465,
308,462,
304,462,
299,458,
297,455,
294,449,
291,448,
289,446,
281,442,
278,440,
278,434,
277,434,
272,435,
267,430,
264,428,
261,425,
259,424,
256,424,
253,424,
249,422,
245,418,
246,420,
245,422,
240,423,
240,421,
238,421,
235,419,
234,422,
232,425,
231,425,
227,422,
230,424,
225,426,
226,426,
224,429,
224,426,
223,426,
227,430,
224,432,
223,433,
224,433,
226,431,
226,435,
224,437,
225,439,
223,440,
226,441,
223,442,
225,444,
224,447,
224,444,
225,444,
229,448,
230,451,
230,452,
232,451,
238,451,
237,455,
237,455,
238,455,
239,454,
244,455,
243,457,
243,459,
242,459,
244,458,
244,456,
249,460,
247,462,
245,462,
248,461,
250,459,
252,462,
250,464,
250,463,
246,463,
252,462,
249,464,
250,463,
252,466,
252,464,
251,461,
256,464,
257,463,
254,466,
253,462,
255,461,
255,463,
255,465,
252,465,
255,466,
256,465,
256,465,
256,470,
262,473,
260,478,
257,478,
262,486,
266,494,
266,504,
274,514,
281,525,
286,536,
295,554,
306,572,
315,591,
330,605,
343,628,
359,651,
370,672,
386,692,
406,712,
422,728,
442,750,
459,768,
477,782,
494,793,
512,801,
527,809,
543,817,
557,822,
569,821,
581,819,
590,814,
601,813,
608,806,
615,797,
621,784,
626,775,
624,762,
628,749,
628,734,
627,717,
622,703,
619,691,
612,673,
605,657,
