PPG A0,PPG A1,event_code
311,535,
327,558,
347,578,
366,599,
385,621,
405,647,
425,673,
447,694,
468,713,
488,733,
506,755,
525,775,
543,791,
560,805,
574,816,
586,830,
598,841,
609,848,
617,849,
623,850,
627,851,
631,852,
633,849,
633,841,
630,834,
627,827,
623,820,
618,810,
611,796,
602,783,
592,773,
583,764,
573,752,
563,737,
551,723,
538,712,
527,703,
516,692,
506,678,
494,665,
482,655,
471,649,
462,640,
454,630,
443,619,
433,612,
425,607,
416,601,
408,591,
400,581,
390,574,
383,570,
377,565,
372,557,
366,549,
361,545,
357,543,
353,541,
351,536,
350,531,
347,529,
345,530,
344,532,
344,533,
344,531,
343,532,
344,537,
347,542,
349,543,
351,544,
351,546,
353,551,
355,557,
359,560,
362,561,
363,562,
365,567,
367,572,
370,574,
371,572,
371,572,
371,574,
373,579,
375,579,
375,577,
374,575,
373,578,
375,580,
376,578,
377,574,
375,570,
374,568,
373,568,
373,566,
372,559,
371,554,
369,551,
367,550,
367,547,
365,540,
363,533,
360,529,
358,527,
355,522,
354,515,
351,509,
347,506,
343,504,
339,501,
337,495,
333,488,
329,484,
326,483,
324,481,
321,477,
318,471,
315,468,
312,469,
310,467,
307,463,
304,458,
301,455,
297,455,
295,454,
293,451,
290,447,
287,444,
284,445,
283,445,
281,443,
280,439,
277,437,
276,438,
277,440,
276,438,
275,434,
273,433,
272,434,
273,437,
274,437,
275,433,
274,431,
274,433,
274,436,
275,437,
276,435,
275,433,
276,434,
276,437,
276,437,
278,434,
278,432,
277,433,
277,436,
278,437,
278,435,
277,433,
276,434,
275,436,
275,437,
275,434,
274,431,
273,431,
272,433,
272,434,
272,432,
271,429,
270,429,
270,431,
271,432,
272,430,
272,428,
271,428,
270,430,
271,432,
271,430,
270,427,
270,426,
270,428,
270,429,
272,428,
272,425,
272,423,
271,425,
272,428,
272,425,
272,422,
270,421,
269,423,
270,425,
270,423,
268,421,
267,420,
264,422,
264,425,
264,424,
265,421,
263,419,
261,419,
261,421,
261,419,
260,417,
258,415,
257,416,
257,418,
257,418,
257,414,
256,411,
255,410,
255,412,
256,412,
257,408,
256,405,
255,405,
254,408,
255,407,
254,403,
253,401,
252,400,
251,402,
250,403,
251,401,
250,399,
247,399,
247,404,
247,409,
249,410,
251,413,
254,420,
258,432,
263,444,
272,455,
280,467,
291,484,
303,504,
318,526,
334,548,
351,567,
368,589,
386,614,
406,640,
427,663,
447,683,
466,704,
485,728,
503,750,
523,769,
540,784,
555,798,
568,813,
580,827,
592,835,
601,839,
608,843,
614,847,
619,850,
623,849,
625,843,
625,837,
623,832,
621,828,
618,821,
613,809,
606,797,
599,786,
592,777,
583,765,
574,751,
564,736,
553,725,
543,715,
535,705,
525,692,
514,678,
503,669,
493,662,
485,654,
476,643,
466,633,
456,626,
447,622,
441,617,
433,608,
424,599,
415,592,
407,588,
400,583,
393,575,
386,567,
378,560,
371,558,
367,555,
363,550,
360,544,
356,540,
353,540,
352,541,
350,539,
349,536,
348,535,
347,538,
347,541,
349,542,
350,542,
351,543,
352,548,
353,554,
356,557,
359,557,
359,559,
360,563,
362,569,
364,572,
366,571,
366,571,
365,575,
368,579,
371,581,
371,579,
373,578,
374,579,
375,583,
375,584,
377,580,
377,576,
376,576,
376,577,
376,575,
376,571,
374,564,
372,562,
370,561,
370,558,
368,552,
367,545,
363,542,
361,541,
360,538,
358,531,
354,523,
351,518,
349,517,
347,514,
347,507,
343,500,
339,496,
337,496,
335,495,
331,489,
328,481,
323,477,
320,477,
318,477,
316,473,
313,467,
310,463,
307,463,
305,464,
303,461,
301,456,
298,454,
296,455,
295,455,
293,454,
291,450,
290,447,
288,449,
286,452,
285,451,
285,448,
284,446,
283,447,
285,450,
286,449,
287,445,
286,442,
285,443,
286,445,
286,445,
287,442,
286,439,
285,440,
285,444,
287,443,
286,440,
285,437,
284,438,
283,441,
285,442,
285,439,
286,436,
285,436,
284,439,
285,440,
285,437,
284,434,
283,434,
282,437,
282,438,
283,437,
282,432,
280,432,
279,436,
278,437,
278,437,
276,434,
275,432,
273,434,
272,436,
272,434,
271,431,
270,430,
268,432,
267,435,
267,434,
267,430,
265,429,
264,432,
265,435,
267,434,
267,430,
267,429,
267,431,
267,433,
268,433,
269,429,
267,426,
266,427,
266,428,
266,427,
266,423,
266,420,
266,421,
266,423,
267,422,
267,418,
267,414,
266,414,
267,417,
267,416,
266,412,
265,409,
264,408,
262,410,
262,410,
261,405,
259,401,
257,400,
255,403,
254,403,
253,399,
252,396,
250,395,
247,396,
246,397,
244,395,
243,391,
241,392,
240,397,
242,400,
243,400,
244,400,
246,403,
248,412,
253,422,
259,430,
265,438,
272,451,
280,469,
291,487,
304,504,
317,521,
331,539,
346,563,
363,589,
380,611,
398,631,
415,651,
433,676,
451,700,
469,720,
487,736,
503,753,
518,771,
533,789,
547,803,
559,810,
569,818,
577,826,
585,834,
592,837,
599,836,
601,833,
603,831,
603,829,
603,824,
602,815,
598,803,
592,796,
587,787,
581,778,
575,765,
567,751,
558,739,
549,731,
540,721,
532,707,
521,693,
512,681,
502,673,
494,664,
486,652,
478,640,
469,631,
461,626,
454,620,
447,612,
439,602,
430,594,
422,591,
414,587,
408,580,
401,569,
393,562,
386,558,
381,554,
375,548,
369,540,
363,535,
356,533,
351,533,
348,529,
345,525,
342,522,
339,523,
338,527,
338,528,
338,527,
338,527,
338,532,
338,538,
339,541,
341,541,
342,542,
342,546,
344,552,
347,556,
350,556,
352,557,
353,560,
355,565,
359,569,
362,568,
363,567,
364,569,
367,573,
369,575,
371,572,
372,569,
372,570,
371,572,
372,572,
373,568,
372,563,
372,559,
371,559,
370,558,
370,552,
369,546,
367,541,
365,540,
364,537,
362,530,
358,522,
354,517,
350,515,
348,513,
346,507,
342,500,
338,494,
335,492,
332,490,
331,485,
328,478,
325,472,
321,471,
318,470,
316,466,
313,459,
309,454,
305,453,
304,453,
303,450,
300,445,
299,442,
296,440,
295,440,
294,438,
292,433,
290,431,
288,430,
288,432,
287,432,
288,428,
287,425,
285,426,
285,428,
285,428,
285,425,
284,423,
283,424,
283,427,
282,429,
282,427,
281,424,
279,425,
277,428,
277,430,
277,427,
275,425,
274,425,
273,428,
273,430,
273,427,
274,425,
273,424,
273,427,
274,428,
275,426,
276,423,
275,422,
276,425,
278,427,
279,426,
280,423,
279,422,
278,425,
279,427,
280,426,
280,424,
279,422,
279,425,
280,428,
280,428,
282,424,
281,422,
282,425,
283,428,
284,427,
284,423,
282,421,
281,424,
280,427,
280,426,
281,422,
279,419,
278,420,
277,422,
276,420,
275,416,
273,415,
271,414,
269,417,
268,416,
267,413,
265,409,
265,409,
264,412,
264,412,
263,408,
262,404,
259,404,
258,406,
259,405,
259,402,
259,397,
257,396,
256,398,
257,400,
257,396,
256,392,
256,391,
257,393,
257,394,
258,392,
258,388,
257,388,
257,393,
257,397,
259,398,
259,399,
260,403,
261,413,
265,422,
270,432,
277,442,
285,454,
294,473,
305,493,
318,511,
332,528,
345,549,
360,574,
377,600,
394,622,
413,643,
430,665,
446,688,
464,712,
481,732,
498,749,
512,765,
526,783,
541,800,
553,814,
565,822,
574,829,
581,837,
589,846,
596,850,
601,848,
604,845,
605,844,
606,843,
606,839,
605,830,
600,820,
595,811,
589,805,
584,796,
577,782,
569,769,
560,759,
551,751,
544,742,
536,729,
527,715,
517,704,
509,696,
501,689,
491,678,
482,666,
471,656,
462,652,
454,646,
447,638,
440,629,
431,620,
423,616,
415,611,
409,603,
402,593,
395,585,
388,581,
383,577,
378,571,
372,563,
366,557,
362,555,
359,554,
356,550,
352,545,
348,541,
346,542,
345,544,
344,544,
343,541,
343,540,
342,543,
343,548,
345,550,
347,549,
348,550,
349,554,
352,560,
354,563,
357,563,
358,563,
359,567,
362,572,
364,574,
367,573,
370,572,
371,574,
372,577,
374,580,
376,577,
376,573,
375,572,
374,573,
374,572,
374,568,
372,562,
370,558,
368,558,
368,556,
367,551,
364,544,
362,540,
359,538,
358,536,
356,529,
353,520,
350,514,
346,511,
344,509,
342,502,
339,495,
335,489,
331,487,
328,485,
326,480,
323,472,
320,466,
316,465,
313,463,
311,459,
308,452,
305,447,
302,446,
300,446,
300,443,
298,438,
296,434,
293,433,
291,435,
291,433,
290,429,
288,426,
286,426,
285,428,
285,428,
284,426,
284,423,
283,424,
283,427,
282,427,
283,426,
281,424,
280,425,
280,428,
280,429,
280,426,
279,423,
277,423,
276,426,
278,427,
278,425,
276,422,
276,422,
275,425,
276,426,
276,424,
276,421,
276,420,
275,423,
275,425,
276,423,
277,420,
276,419,
275,421,
275,423,
276,421,
275,418,
274,417,
273,419,
274,421,
275,420,
276,418,
275,415,
275,418,
274,419,
275,419,
273,416,
271,413,
270,415,
271,417,
272,416,
272,413,
272,409,
272,411,
272,413,
274,412,
274,409,
274,406,
274,408,
273,410,
275,409,
276,406,
275,403,
274,403,
274,406,
274,407,
275,403,
272,401,
271,401,
270,404,
270,403,
269,400,
267,397,
265,397,
263,399,
263,400,
263,398,
261,394,
260,394,
258,397,
259,398,
259,396,
258,394,
255,393,
254,396,
254,398,
254,396,
253,392,
252,391,
251,393,
251,395,
251,393,
250,389,
249,387,
249,389,
249,390,
249,388,
248,384,
246,382,
244,383,
244,384,
244,383,
243,380,
241,379,
240,381,
239,384,
239,385,
240,384,
240,386,
242,392,
245,401,
250,409,
255,416,
261,424,
268,440,
276,458,
288,475,
300,491,
313,509,
326,531,
344,557,
362,582,
381,604,
399,626,
417,651,
436,677,
456,702,
476,722,
494,740,
511,761,
527,782,
544,801,
559,813,
571,823,
582,834,
591,846,
600,854,
607,858,
613,857,
616,857,
616,859,
618,859,
618,853,
616,843,
611,834,
606,828,
600,820,
594,808,
586,794,
577,782,
567,772,
558,764,
549,751,
539,737,
528,724,
517,715,
507,707,
498,696,
489,684,
479,673,
470,665,
462,660,
454,651,
446,641,
437,631,
429,626,
422,622,
415,615,
408,605,
401,596,
394,591,
388,587,
384,580,
379,571,
373,563,
366,558,
362,557,
358,553,
355,547,
350,543,
347,541,
344,542,
343,543,
342,541,
340,538,
338,540,
337,546,
339,548,
340,550,
342,549,
343,552,
345,558,
348,563,
351,564,
353,564,
355,566,
356,572,
359,576,
362,576,
364,575,
366,575,
367,578,
370,580,
372,578,
374,574,
374,572,
375,573,
376,574,
378,571,
378,566,
376,562,
376,562,
377,562,
376,558,
375,552,
373,547,
371,545,
368,543,
366,539,
364,532,
361,526,
356,523,
354,521,
351,516,
347,509,
344,502,
340,499,
337,497,
334,494,
331,486,
326,479,
321,477,
318,475,
314,472,
311,464,
306,459,
302,455,
299,454,
298,452,
296,447,
294,442,
291,439,
289,440,
288,440,
287,436,
285,430,
283,429,
281,432,
280,433,
278,430,
276,426,
274,426,
272,428,
272,430,
273,428,
273,425,
273,424,
273,426,
273,428,
273,427,
273,423,
273,422,
273,424,
273,425,
275,425,
275,421,
275,420,
274,422,
274,425,
275,425,
275,421,
275,420,
274,421,
275,424,
275,424,
275,422,
274,420,
273,422,
273,424,
274,425,
274,421,
274,419,
273,420,
274,422,
276,423,
277,419,
276,417,
274,419,
275,421,
275,421,
275,419,
275,416,
274,416,
274,419,
274,420,
274,418,
274,414,
273,414,
273,416,
273,417,
274,414,
275,411,
274,411,
274,413,
274,414,
275,411,
274,408,
273,408,
273,410,
273,411,
273,408,
271,406,
271,405,
269,407,
268,410,
269,408,
268,404,
267,403,
265,405,
263,406,
263,405,
261,402,
260,400,
258,402,
258,404,
258,403,
258,398,
256,396,
257,398,
256,399,
257,398,
257,395,
256,392,
255,394,
256,396,
257,396,
256,393,
255,390,
253,391,
254,393,
253,393,
252,390,
252,388,
251,389,
250,393,
251,393,
252,390,
250,386,
249,386,
249,389,
248,389,
248,386,
247,383,
245,383,
245,385,
245,385,
245,384,
244,381,
242,381,
243,384,
243,385,
242,384,
240,381,
238,381,
237,385,
238,389,
239,390,
240,391,
241,396,
243,407,
247,419,
252,428,
259,438,
266,452,
275,471,
287,491,
301,509,
316,526,
332,547,
349,572,
368,597,
389,619,
409,639,
427,659,
444,683,
463,707,
482,727,
499,742,
515,758,
530,775,
544,792,
557,803,
568,810,
576,816,
584,823,
590,829,
595,831,
599,828,
601,823,
601,820,
598,817,
596,811,
592,800,
586,787,
578,777,
572,769,
564,758,
556,743,
546,728,
536,715,
525,704,
515,693,
504,678,
493,663,
481,651,
470,643,
461,633,
450,621,
440,608,
428,598,
417,592,
409,585,
400,575,
391,565,
381,556,
373,551,
366,546,
359,537,
352,528,
345,521,
338,518,
332,516,
326,510,
321,505,
316,500,
312,501,
309,502,
308,502,
308,500,
307,499,
306,503,
308,508,
310,510,
311,510,
312,512,
313,517,
317,524,
322,528,
325,530,
329,532,
331,538,
335,544,
339,548,
343,548,
345,548,
347,551,
351,556,
353,559,
357,558,
359,556,
360,558,
362,562,
365,563,
368,561,
368,557,
367,555,
366,557,
366,556,
366,552,
365,546,
362,543,
362,543,
361,540,
359,534,
357,526,
352,521,
349,518,
347,515,
345,508,
342,499,
338,494,
334,492,
332,489,
329,483,
325,476,
320,470,
316,468,
313,466,
310,460,
307,453,
303,448,
299,447,
297,446,
294,443,
291,436,
288,432,
284,432,
282,432,
280,430,
279,426,
276,423,
273,424,
272,425,
271,424,
271,419,
270,417,
269,417,
269,420,
270,419,
270,417,
269,415,
268,416,
267,419,
267,420,
268,418,
266,415,
265,417,
265,421,
265,423,
266,421,
265,420,
262,420,
262,424,
263,426,
264,423,
265,420,
264,419,
264,422,
265,424,
266,422,
265,419,
264,419,
263,423,
263,424,
264,423,
264,420,
263,419,
263,422,
264,424,
264,421,
264,418,
264,416,
263,418,
263,420,
263,419,
263,416,
263,414,
264,415,
266,418,
267,417,
268,414,
268,412,
267,414,
267,416,
268,415,
268,412,
267,409,
266,410,
266,413,
267,412,
266,409,
264,408,
262,409,
262,411,
263,411,
262,407,
262,405,
261,405,
260,409,
261,408,
260,405,
260,402,
258,403,
258,405,
258,406,
258,404,
258,401,
257,401,
257,404,
257,405,
258,402,
257,399,
256,398,
255,401,
255,402,
255,399,
255,396,
252,396,
250,398,
250,400,
249,398,
248,394,
247,393,
246,397,
246,398,
246,396,
246,393,
246,392,
245,394,
246,396,
246,395,
247,390,
245,389,
244,390,
243,392,
242,390,
240,386,
238,384,
236,385,
236,387,
235,387,
234,383,
233,382,
233,384,
232,387,
232,388,
232,385,
231,385,
230,389,
232,395,
235,399,
237,401,
240,406,
243,415,
249,430,
257,443,
267,455,
276,469,
287,487,
302,508,
318,530,
335,549,
352,569,
369,592,
390,618,
412,642,
434,663,
454,684,
474,706,
494,730,
515,753,
534,770,
550,787,
564,802,
577,819,
590,833,
601,842,
610,849,
617,854,
622,861,
627,865,
631,864,
633,860,
632,856,
629,853,
627,849,
624,842,
619,831,
611,819,
603,813,
596,805,
588,792,
579,778,
567,765,
556,755,
545,747,
538,735,
528,723,
516,710,
506,701,
498,694,
489,684,
481,674,
473,665,
464,658,
458,655,
451,648,
445,639,
437,630,
429,624,
422,621,
418,616,
412,607,
405,598,
398,593,
393,591,
388,587,
383,579,
378,572,
373,568,
369,567,
365,565,
363,560,
359,555,
356,553,
352,555,
352,556,
351,555,
351,553,
350,553,
350,558,
351,561,
352,561,
353,560,
353,561,
353,566,
354,570,
355,571,
357,570,
356,570,
358,574,
361,578,
363,579,
365,576,
365,574,
365,577,
367,580,
369,579,
371,576,
371,573,
370,575,
370,577,
370,576,
370,570,
368,566,
367,565,
366,565,
365,561,
364,554,
362,549,
358,546,
358,545,
356,541,
353,533,
350,526,
346,522,
344,521,
342,516,
339,509,
336,502,
332,498,
329,496,
327,492,
324,486,
320,480,
316,476,
314,476,
311,473,
308,467,
304,459,
300,455,
298,455,
296,452,
294,447,
290,441,
287,439,
284,439,
281,440,
280,436,
277,431,
275,429,
273,430,
272,431,
271,430,
270,427,
267,425,
265,427,
265,430,
264,428,
263,425,
260,424,
259,427,
258,430,
258,429,
257,427,
255,425,
254,426,
255,430,
257,430,
258,428,
258,427,
258,428,
259,432,
261,432,
262,429,
262,427,
263,428,
264,431,
266,431,
267,429,
268,427,
268,428,
269,430,
270,430,
271,427,
271,425,
270,425,
270,426,
272,427,
273,423,
273,419,
272,419,
273,422,
273,422,
273,419,
272,416,
271,416,
271,419,
271,420,
270,419,
270,415,
268,414,
267,417,
266,419,
265,418,
263,415,
262,414,
260,416,
261,417,
261,415,
262,411,
260,410,
259,411,
259,412,
260,410,
260,406,
259,404,
258,406,
257,408,
257,406,
256,403,
254,401,
251,402,
250,405,
250,404,
250,399,
249,397,
248,398,
247,400,
247,399,
248,395,
247,393,
246,394,
247,396,
247,396,
246,394,
244,391,
243,392,
244,395,
245,396,
245,393,
244,390,
243,391,
243,394,
243,395,
244,392,
242,389,
239,389,
238,391,
238,392,
236,390,
234,386,
233,386,
232,388,
232,390,
231,387,
229,384,
227,383,
225,386,
225,388,
226,387,
224,386,
224,389,
225,397,
228,405,
234,412,
239,418,
245,429,
253,444,
263,461,
275,477,
289,491,
303,510,
319,534,
338,558,
359,581,
379,601,
399,623,
418,649,
439,675,
460,698,
481,717,
499,738,
517,760,
535,782,
552,799,
567,812,
580,822,
591,835,
601,849,
610,857,
616,861,
621,862,
623,864,
624,867,
625,865,
624,860,
622,852,
617,847,
612,842,
607,834,
600,822,
593,809,
584,798,
574,791,
566,780,
557,766,
546,751,
535,740,
526,731,
515,722,
506,709,
496,697,
485,687,
476,681,
468,675,
460,667,
450,657,
440,651,
433,647,
426,643,
420,637,
413,627,
405,620,
398,616,
392,612,
387,605,
380,595,
374,587,
370,583,
366,580,
362,574,
359,567,
355,560,
351,559,
348,558,
346,555,
345,551,
342,548,
339,548,
339,550,
339,550,
340,546,
341,545,
341,547,
342,552,
344,554,
347,553,
348,552,
349,555,
350,561,
353,565,
357,565,
360,565,
362,567,
364,571,
367,573,
370,572,
372,570,
372,571,
373,575,
374,576,
375,574,
375,570,
375,569,
374,571,
374,571,
374,568,
372,563,
370,559,
368,559,
367,558,
366,552,
364,545,
360,539,
356,538,
354,535,
353,529,
349,521,
345,514,
341,511,
338,509,
336,503,
332,495,
327,489,
322,487,
318,485,
315,480,
311,473,
306,466,
301,464,
298,463,
296,459,
293,452,
289,448,
287,447,
284,446,
282,445,
279,440,
277,436,
273,436,
271,437,
270,436,
270,432,
268,429,
265,428,
265,429,
264,429,
263,427,
261,423,
259,423,
258,425,
259,426,
258,423,
259,421,
257,421,
257,423,
259,423,
260,420,
262,417,
262,416,
264,418,
266,420,
268,418,
269,416,
269,417,
269,420,
271,421,
272,419,
272,417,
272,417,
272,419,
274,422,
276,421,
277,418,
277,418,
277,420,
278,422,
278,423,
278,420,
276,419,
276,422,
275,425,
275,425,
276,421,
275,419,
274,421,
275,423,
274,423,
274,419,
273,417,
271,418,
271,420,
272,419,
271,416,
270,413,
269,414,
269,417,
268,417,
268,415,
266,412,
264,412,
264,415,
264,415,
263,411,
263,408,
261,408,
260,410,
261,411,
261,409,
260,407,
260,406,
260,407,
261,408,
261,405,
260,401,
259,401,
259,403,
258,404,
258,402,
257,398,
256,397,
256,400,
257,401,
256,400,
257,397,
255,395,
254,397,
254,399,
253,397,
253,394,
250,391,
249,393,
249,396,
249,394,
248,391,
246,390,
245,392,
245,393,
246,393,
246,389,
244,387,
243,390,
243,393,
244,393,
244,389,
244,387,
243,389,
242,393,
243,393,
242,390,
241,388,
240,388,
239,391,
239,390,
239,386,
237,383,
234,383,
233,385,
233,384,
231,381,
228,377,
227,377,
226,380,
225,381,
224,379,
223,377,
221,379,
221,385,
222,390,
224,394,
225,399,
228,408,
232,421,
239,435,
246,447,
256,459,
267,476,
280,496,
295,517,
313,536,
330,554,
347,575,
366,599,
386,623,
407,642,
424,661,
441,678,
457,699,
476,719,
493,734,
509,744,
522,756,
535,769,
546,782,
557,787,
566,790,
572,793,
576,795,
580,797,
583,795,
585,790,
583,782,
579,778,
576,774,
572,765,
566,753,
559,741,
551,732,
543,724,
534,712,
525,699,
515,687,
504,676,
494,670,
485,661,
475,649,
465,639,
455,631,
446,628,
438,623,
429,614,
421,605,
412,599,
405,597,
399,594,
392,587,
386,579,
379,574,
373,572,
368,569,
363,563,
358,555,
352,550,
347,550,
343,549,
339,545,
335,539,
332,536,
330,538,
329,539,
328,537,
327,533,
326,533,
326,536,
326,540,
326,540,
328,540,
327,541,
328,545,
328,550,
331,552,
334,552,
335,553,
336,558,
340,563,
345,566,
348,566,
351,566,
352,570,
354,575,
358,577,
360,575,
361,574,
362,575,
364,578,
366,579,
367,575,
368,572,
368,571,
368,572,
368,571,
368,566,
368,561,
365,558,
364,558,
364,555,
363,549,
360,543,
358,539,
355,539,
354,536,
352,530,
349,522,
345,516,
342,514,
338,511,
336,505,
333,499,
329,493,
323,492,
320,489,
316,483,
313,475,
308,469,
304,469,
301,467,
300,462,
297,456,
295,453,
292,453,
292,453,
291,451,
289,446,
286,442,
284,442,
283,444,
282,442,
282,437,
280,434,
278,435,
278,437,
279,435,
278,432,
276,430,
274,431,
274,434,
273,434,
272,432,
272,430,
271,431,
271,435,
271,436,
272,433,
270,431,
269,432,
270,436,
270,437,
272,434,
272,430,
270,432,
270,435,
271,435,
272,433,
272,430,
271,431,
270,433,
271,435,
272,432,
273,429,
271,428,
272,430,
273,432,
273,429,
273,426,
273,426,
273,428,
274,430,
275,428,
276,425,
276,424,
275,427,
276,429,
278,427,
278,424,
277,423,
276,426,
276,428,
277,427,
276,424,
274,421,
272,423,
272,425,
272,424,
271,420,
270,418,
267,420,
268,421,
267,420,
267,417,
265,414,
263,416,
261,417,
261,417,
261,413,
259,410,
258,410,
257,413,
257,413,
258,409,
256,406,
253,406,
252,407,
252,407,
251,403,
250,400,
249,399,
248,401,
249,401,
247,397,
245,394,
242,393,
241,395,
241,396,
239,394,
239,390,
237,390,
235,395,
234,398,
234,398,
234,397,
234,400,
235,408,
239,417,
243,424,
247,433,
253,445,
260,463,
270,481,
282,497,
295,514,
309,535,
325,560,
343,586,
362,609,
382,630,
401,653,
420,679,
441,706,
462,730,
483,749,
500,769,
519,791,
536,813,
552,831,
566,844,
579,855,
590,867,
599,879,
608,886,
614,889,
619,889,
621,891,
622,893,
623,891,
623,884,
620,876,
615,870,
610,865,
605,858,
599,845,
591,831,
582,819,
573,810,
565,799,
557,785,
546,770,
536,757,
525,749,
515,738,
506,726,
496,713,
486,703,
476,696,
468,689,
460,679,
451,668,
441,661,
432,657,
426,653,
418,645,
410,634,
403,627,
396,622,
391,618,
385,611,
380,601,
374,593,
367,589,
362,587,
359,580,
355,572,
349,567,
345,565,
341,566,
339,564,
337,560,
335,557,
332,559,
333,563,
334,565,
334,563,
335,564,
336,568,
338,574,
340,577,
343,578,
345,579,
347,582,
350,587,
354,591,
358,591,
360,591,
363,594,
366,599,
369,601,
371,599,
373,597,
374,597,
376,599,
378,600,
379,596,
378,592,
378,589,
377,589,
376,589,
375,584,
374,578,
372,574,
369,573,
368,571,
366,565,
363,556,
358,550,
355,547,
353,544,
351,536,
348,528,
344,520,
340,515,
337,511,
334,504,
332,495,
327,487,
324,484,
321,481,
318,477,
316,469,
312,463,
310,461,
308,460,
306,457,
304,451,
300,446,
297,444,
295,445,
294,443,
291,438,
288,434,
286,433,
284,435,
283,434,
282,430,
280,426,
278,426,
278,428,
279,427,
279,425,
280,422,
278,423,
279,426,
280,427,
280,426,
280,423,
278,423,
277,426,
278,429,
279,426,
280,423,
279,423,
279,426,
280,428,
280,425,
279,423,
279,423,
278,426,
279,427,
280,426,
279,423,
278,422,
278,425,
277,427,
278,426,
277,422,
276,421,
275,423,
276,426,
276,424,
275,420,
273,419,
272,421,
271,422,
271,421,
270,416,
269,414,
267,416,
267,419,
268,417,
267,414,
265,412,
264,412,
263,414,
263,413,
262,408,
262,404,
261,405,
262,407,
263,406,
263,401,
264,398,
263,398,
263,400,
264,400,
264,396,
264,394,
262,393,
262,396,
263,397,
263,394,
263,391,
263,392,
261,395,
262,397,
261,394,
260,391,
259,390,
257,393,
257,394,
257,391,
256,388,
255,387,
254,390,
255,392,
256,391,
254,387,
253,385,
251,387,
251,389,
251,388,
250,384,
248,383,
245,384,
244,386,
243,385,
242,380,
238,378,
236,379,
235,381,
235,380,
234,376,
231,373,
229,375,
227,378,
227,378,
227,375,
226,373,
226,376,
227,382,
230,385,
232,386,
234,391,
236,400,
243,414,
252,427,
261,438,
271,452,
281,472,
295,495,
310,518,
327,541,
345,563,
363,590,
381,620,
401,650,
422,675,
441,700,
461,728,
480,757,
501,784,
520,807,
537,827,
552,848,
567,871,
580,889,
593,902,
604,913,
612,923,
619,933,
626,941,
631,942,
634,941,
636,939,
635,937,
633,935,
631,928,
627,917,
622,907,
614,899,
609,891,
601,880,
592,865,
583,851,
573,839,
564,829,
555,816,
546,801,
536,787,
526,777,
517,768,
509,757,
499,744,
490,733,
481,724,
473,719,
466,713,
460,702,
452,694,
444,688,
438,685,
432,679,
426,669,
418,659,
410,653,
404,649,
399,643,
394,635,
389,625,
384,619,
379,616,
376,611,
374,605,
370,597,
366,594,
362,594,
362,593,
361,589,
360,585,
358,582,
359,585,
360,586,
361,584,
363,582,
363,582,
365,587,
367,591,
370,592,
372,591,
373,592,
374,598,
377,603,
379,604,
380,603,
381,602,
380,605,
381,609,
381,609,
381,606,
379,603,
378,604,
377,606,
378,604,
377,599,
375,594,
373,593,
372,593,
371,589,
370,582,
368,575,
366,571,
364,569,
363,564,
361,556,
359,548,
356,543,
353,541,
351,536,
350,527,
347,518,
344,512,
340,509,
337,505,
337,497,
333,489,
329,484,
326,482,
324,478,
321,471,
318,463,
314,458,
311,457,
310,455,
308,449,
305,442,
301,437,
297,438,
295,437,
293,434,
291,429,
287,427,
284,428,
284,429,
284,427,
282,422,
279,421,
277,422,
276,424,
276,423,
274,418,
274,417,
273,419,
273,421,
274,421,
274,417,
274,416,
275,419,
276,422,
278,423,
277,420,
278,418,
277,419,
277,423,
278,424,
278,420,
279,417,
278,418,
278,422,
280,422,
280,420,
281,417,
280,418,
280,421,
282,422,
283,419,
283,416,
282,417,
282,420,
281,421,
282,418,
282,415,
281,415,
281,417,
281,418,
281,415,
281,412,
280,410,
279,412,
278,413,
278,409,
277,405,
276,403,
276,406,
274,406,
274,405,
273,401,
272,400,
271,401,
271,403,
271,401,
270,397,
269,395,
267,397,
268,399,
268,398,
268,393,
266,392,
265,394,
265,396,
266,394,
265,390,
264,388,
264,389,
264,390,
265,389,
265,385,
264,383,
262,385,
262,388,
262,388,
261,385,
260,382,
259,382,
258,384,
257,384,
257,380,
255,377,
253,377,
252,379,
251,379,
251,376,
249,372,
247,372,
246,374,
246,374,
246,370,
245,367,
243,366,
241,368,
241,369,
241,367,
240,363,
239,363,
238,366,
240,368,
240,368,
241,367,
240,370,
240,378,
244,386,
246,392,
251,399,
255,410,
261,426,
270,445,
280,462,
291,479,
303,500,
316,525,
331,553,
348,579,
365,603,
382,629,
401,659,
420,689,
440,715,
460,738,
477,760,
493,785,
510,810,
527,831,
541,847,
553,861,
563,877,
573,891,
583,901,
591,905,
596,908,
599,911,
602,914,
604,913,
606,907,
605,899,
602,893,
596,887,
592,878,
585,864,
579,849,
570,836,
562,826,
555,814,
546,797,
537,781,
527,766,
518,756,
510,744,
502,729,
494,713,
484,700,
475,691,
467,683,
459,671,
450,658,
442,649,
434,644,
426,638,
420,628,
413,617,
406,607,
398,601,
393,595,
388,588,
381,577,
373,569,
365,564,
361,561,
357,556,
353,548,
349,542,
346,541,
344,542,
343,541,
342,538,
340,536,
338,538,
339,542,
340,544,
341,543,
342,542,
343,547,
347,552,
349,557,
352,556,
353,557,
354,560,
356,567,
359,571,
362,570,
363,571,
364,573,
365,578,
366,581,
368,580,
369,577,
368,576,
368,579,
369,579,
368,574,
368,569,
365,566,
363,566,
363,564,
362,559,
360,551,
358,547,
354,545,
352,542,
351,536,
348,528,
345,522,
342,518,
339,515,
337,508,
334,499,
332,493,
327,490,
326,487,
324,481,
321,473,
317,466,
314,464,
312,462,
309,457,
305,450,
302,443,
298,441,
296,440,
296,437,
295,430,
292,425,
290,424,
289,424,
288,422,
287,417,
285,414,
283,413,
282,415,
282,415,
282,411,
280,408,
279,409,
278,411,
278,411,
278,408,
277,405,
275,405,
276,408,
277,409,
278,406,
279,403,
278,403,
278,406,
279,407,
280,406,
280,403,
279,403,
279,406,
280,409,
281,408,
281,405,
281,405,
280,408,
281,410,
282,409,
280,406,
279,405,
279,408,
280,411,
280,410,
280,406,
279,406,
278,408,
277,410,
277,410,
277,406,
275,404,
274,406,
274,408,
274,407,
273,402,
272,400,
270,401,
271,404,
270,403,
270,399,
271,396,
269,396,
271,399,
271,399,
271,396,
270,393,
268,393,
268,396,
269,396,
268,392,
266,389,
265,389,
263,391,
263,391,
263,387,
262,384,
260,383,
258,385,
259,386,
260,383,
261,379,
260,378,
259,381,
260,382,
260,380,
259,376,
258,375,
258,377,
258,377,
258,374,
257,370,
255,368,
253,370,
253,371,
253,370,
252,365,
250,363,
248,365,
248,367,
248,366,
246,361,
243,358,
241,361,
240,363,
239,362,
238,359,
235,357,
234,359,
234,363,
235,364,
236,364,
236,366,
238,372,
241,383,
248,392,
254,400,
261,411,
269,426,
278,445,
290,464,
303,481,
316,501,
330,525,
346,553,
363,577,
381,600,
399,622,
416,648,
434,675,
452,700,
468,719,
484,737,
497,755,
511,776,
524,792,
536,803,
545,811,
552,818,
559,828,
565,834,
570,835,
573,832,
573,829,
572,828,
571,824,
569,815,
564,804,
559,792,
552,783,
545,774,
537,760,
527,743,
517,728,
507,716,
497,704,
488,688,
478,672,
467,656,
457,645,
448,636,
439,624,
429,610,
420,597,
410,588,
401,581,
394,572,
386,560,
378,550,
370,543,
364,538,
357,531,
352,521,
346,512,
339,507,
334,505,
329,501,
324,495,
318,490,
313,488,
310,489,
309,489,
307,486,
305,484,
303,486,
303,490,
305,494,
307,494,
308,494,
309,498,
311,506,
316,511,
318,514,
321,516,
323,520,
326,527,
331,534,
335,537,
339,537,
340,540,
344,546,
347,551,
351,553,
354,552,
356,553,
358,556,
361,559,
364,557,
366,553,
368,550,
368,551,
370,552,
371,549,
371,543,
368,538,
367,537,
367,536,
366,531,
364,524,
361,517,
357,515,
355,513,
352,509,
350,500,
345,493,
342,490,
338,487,
336,482,
333,474,
330,467,
325,463,
322,462,
319,457,
317,450,
312,442,
307,438,
303,437,
300,434,
297,428,
293,423,
289,419,
287,420,
285,419,
284,415,
282,410,
278,408,
276,410,
275,410,
274,406,
274,402,
272,401,
271,403,
270,405,
269,403,
268,400,
266,399,
264,402,
263,404,
262,404,
262,400,
260,399,
259,402,
260,405,
260,405,
261,402,
261,401,
262,404,
262,406,
264,407,
266,402,
266,402,
266,404,
268,409,
269,409,
270,406,
270,404,
268,406,
270,409,
270,410,
271,407,
270,406,
270,408,
270,411,
270,411,
272,409,
271,407,
271,409,
272,412,
273,413,
273,410,
273,408,
273,409,
273,412,
275,414,
275,411,
276,410,
274,409,
274,412,
274,414,
275,411,
274,408,
273,407,
273,410,
274,412,
275,409,
273,406,
272,405,
270,408,
270,409,
272,406,
271,401,
271,399,
269,401,
269,401,
269,399,
270,394,
269,392,
269,393,
269,393,
269,391,
267,386,
265,383,
263,384,
262,385,
260,384,
258,380,
255,377,
252,378,
251,381,
250,381,
248,377,
246,376,
246,378,
245,383,
246,386,
248,386,
249,389,
252,396,
255,407,
261,416,
268,425,
275,435,
282,450,
292,468,
304,486,
317,501,
329,517,
342,537,
355,560,
372,582,
387,601,
402,618,
416,637,
430,658,
445,677,
459,691,
471,702,
482,715,
492,729,
502,740,
510,745,
517,747,
521,750,
525,754,
529,757,
531,755,
530,750,
529,744,
526,740,
523,736,
521,727,
515,715,
508,703,
499,694,
492,685,
485,672,
478,657,
469,644,
459,634,
450,625,
442,614,
432,600,
422,588,
411,579,
402,572,
394,562,
385,550,
377,539,
367,531,
359,526,
354,518,
346,507,
338,498,
331,493,
325,490,
321,485,
317,477,
312,471,
307,468,
304,469,
303,468,
302,464,
300,461,
298,461,
298,466,
298,469,
300,470,
301,471,
301,474,
303,481,
306,488,
309,490,
312,491,
314,496,
318,505,
322,511,
327,515,
331,517,
333,522,
336,529,
340,535,
343,538,
346,538,
346,538,
347,542,
349,545,
351,546,
352,542,
353,540,
351,542,
353,543,
354,540,
354,534,
352,530,
352,528,
352,528,
351,524,
350,517,
348,510,
344,508,
342,507,
340,502,
338,495,
333,488,
330,485,
328,482,
325,479,
321,471,
317,463,
313,459,
309,457,
307,453,
304,445,
300,438,
295,434,
292,434,
290,431,
288,426,
285,420,
282,418,
279,419,
278,418,
276,413,
273,409,
270,408,
269,410,
268,412,
267,409,
266,406,
266,405,
265,408,
265,410,
266,409,
265,406,
265,405,
265,408,
266,411,
267,410,
268,407,
266,406,
266,410,
267,413,
269,412,
270,410,
270,408,
270,411,
271,414,
272,414,
273,410,
272,409,
273,411,
275,414,
274,413,
275,411,
275,408,
274,410,
274,414,
275,413,
275,411,
274,409,
273,409,
273,413,
273,413,
274,411,
273,409,
272,410,
273,414,
274,415,
274,412,
273,411,
273,410,
271,413,
272,414,
271,412,
270,408,
268,409,
267,412,
268,413,
268,411,
267,409,
265,408,
265,410,
264,411,
265,408,
264,405,
263,403,
262,406,
263,408,
265,406,
265,402,
266,401,
266,402,
266,404,
266,403,
266,398,
265,395,
263,397,
262,398,
261,396,
260,392,
257,390,
256,391,
254,393,
254,391,
252,387,
250,385,
248,387,
247,390,
248,391,
249,391,
249,393,
251,399,
254,409,
260,416,
265,422,
271,431,
279,445,
289,462,
299,479,
311,493,
323,508,
336,527,
351,551,
368,573,
384,592,
400,609,
415,631,
430,655,
446,676,
461,693,
475,706,
487,722,
499,738,
513,752,
524,761,
532,766,
539,772,
547,780,
553,785,
558,785,
561,782,
561,778,
561,778,
560,774,
558,767,
553,756,
547,747,
540,740,
535,733,
529,721,
521,707,
513,695,
503,686,
496,678,
488,666,
478,653,
468,641,
458,633,
450,628,
442,619,
435,608,
426,599,
418,592,
411,588,
405,581,
399,571,
391,562,
384,556,
378,553,
373,548,
368,539,
361,531,
355,526,
350,524,
345,521,
341,515,
336,510,
331,508,
327,510,
326,510,
324,508,
321,504,
319,504,
318,508,
318,511,
319,510,
320,509,
319,511,
320,517,
322,521,
324,522,
326,523,
327,524,
329,531,
332,536,
336,537,
338,536,
339,537,
341,542,
344,546,
346,546,
348,544,
349,543,
351,546,
353,550,
354,548,
355,545,
354,543,
354,543,
355,545,
356,543,
356,537,
354,533,
352,532,
350,532,
349,529,
347,523,
344,517,
340,514,
338,513,
336,509,
334,501,
330,495,
327,491,
324,490,
322,486,
319,479,
316,472,
312,468,
309,466,
307,463,
304,456,
302,449,
298,447,
296,447,
294,445,
292,439,
290,433,
286,431,
285,433,
284,433,
283,429,
280,425,
279,423,
277,424,
277,425,
277,422,
276,418,
275,417,
273,419,
273,420,
274,419,
272,416,
271,414,
270,416,
269,419,
269,419,
268,416,
266,414,
265,416,
264,419,
264,419,
263,416,
262,415,
261,417,
260,420,
261,421,
262,418,
261,416,
261,417,
262,421,
264,420,
265,416,
266,415,
266,415,
268,419,
270,419,
273,416,
273,415,
274,416,
274,420,
276,419,
277,416,
275,414,
274,415,
274,418,
275,419,
275,416,
274,413,
273,413,
271,417,
271,418,
271,415,
269,412,
269,412,
268,415,
268,416,
268,414,
268,410,
267,410,
266,412,
266,414,
266,412,
266,408,
265,406,
264,408,
265,410,
266,409,
266,404,
266,402,
265,405,
265,406,
267,406,
266,402,
265,399,
264,401,
264,402,
265,401,
265,397,
262,394,
261,396,
260,397,
258,395,
258,392,
255,389,
252,390,
251,392,
250,391,
249,388,
247,385,
245,386,
244,389,
244,389,
243,386,
243,385,
242,388,
242,393,
244,398,
247,400,
248,404,
251,412,
256,424,
263,436,
270,446,
278,457,
288,473,
299,492,
313,510,
327,526,
342,541,
357,560,
372,583,
390,605,
407,621,
424,636,
441,653,
456,672,
471,689,
486,701,
499,710,
510,720,
520,733,
529,743,
539,749,
544,751,
549,752,
553,754,
555,756,
558,752,
559,745,
556,738,
552,735,
549,730,
545,723,
539,711,
532,700,
524,693,
515,686,
509,676,
501,663,
493,651,
483,643,
473,637,
465,629,
456,617,
447,607,
437,600,
429,596,
423,590,
415,580,
408,572,
398,566,
391,563,
384,560,
379,553,
373,545,
366,541,
360,540,
356,537,
350,530,
344,523,
337,519,
332,518,
328,517,
325,513,
321,508,
318,506,
315,507,
315,508,
315,507,
314,503,
313,504,
313,508,
315,511,
317,511,
319,510,
320,512,
321,516,
325,521,
329,521,
331,521,
333,521,
335,526,
338,531,
340,534,
342,532,
342,531,
342,533,
343,537,
346,538,
346,535,
346,533,
347,535,
348,537,
350,536,
351,532,
350,528,
349,527,
349,528,
348,527,
348,521,
346,516,
343,514,
341,514,
340,511,
339,505,
337,499,
334,495,
333,495,
331,493,
329,486,
326,480,
322,476,
318,475,
317,473,
314,468,
312,461,
308,457,
306,457,
305,456,
303,451,
300,445,
297,441,
294,442,
292,442,
290,438,
287,432,
286,429,
284,431,
283,432,
282,430,
280,426,
277,425,
275,426,
275,429,
274,428,
274,425,
271,424,
269,426,
268,429,
268,427,
267,424,
266,421,
265,423,
265,426,
266,426,
267,422,
266,420,
266,423,
266,425,
267,425,
267,424,
266,422,
265,424,
265,427,
268,429,
270,425,
270,423,
270,424,
271,428,
272,429,
273,426,
272,424,
272,424,
273,428,
274,429,
275,427,
274,424,
272,424,
272,427,
272,427,
272,424,
271,421,
270,419,
270,422,
270,424,
269,422,
269,418,
268,417,
267,419,
266,421,
267,419,
266,416,
265,415,
265,417,
264,420,
264,418,
264,415,
263,413,
261,414,
261,417,
261,415,
260,412,
259,409,
258,412,
259,413,
261,411,
261,407,
260,406,
259,407,
259,409,
260,408,
260,405,
259,402,
258,404,
257,407,
258,408,
259,405,
258,403,
257,404,
257,407,
258,407,
258,404,
258,401,
257,402,
258,405,
259,406,
259,402,
258,399,
257,399,
256,402,
255,403,
254,400,
252,397,
251,396,
249,399,
248,400,
247,398,
245,395,
242,394,
240,397,
238,399,
236,397,
235,394,
233,393,
232,397,
233,400,
234,400,
236,401,
237,403,
239,411,
244,421,
249,428,
256,435,
264,445,
273,461,
284,477,
297,492,
312,505,
327,520,
343,540,
360,561,
378,577,
396,592,
412,607,
428,624,
445,643,
462,658,
477,668,
491,677,
503,690,
515,704,
525,711,
533,716,
539,717,
542,721,
546,726,
549,727,
551,723,
550,717,
547,714,
544,711,
541,705,
537,696,
530,685,
522,678,
514,672,
508,666,
502,655,
493,643,
484,634,
475,628,
467,621,
460,610,
450,599,
442,591,
433,586,
425,581,
418,573,
410,563,
402,556,
395,552,
389,550,
383,545,
377,538,
370,532,
365,530,
359,529,
355,524,
351,517,
344,512,
340,511,
336,510,
332,508,
330,502,
326,499,
323,500,
321,502,
320,502,
319,498,
317,497,
314,498,
313,502,
315,504,
315,503,
315,504,
315,507,
316,513,
317,515,
318,515,
319,515,
321,518,
322,525,
325,528,
327,529,
328,528,
328,529,
331,533,
334,536,
336,534,
338,531,
338,531,
339,534,
342,535,
343,533,
344,528,
345,526,
344,528,
345,528,
346,525,
346,519,
343,515,
342,515,
341,514,
340,511,
338,505,
335,502,
332,501,
330,501,
329,497,
326,491,
323,486,
320,485,
318,484,
315,480,
313,474,
310,469,
306,468,
303,467,
301,463,
298,457,
296,454,
292,453,
290,453,
287,451,
285,446,
282,443,
279,442,
278,443,
277,442,
276,437,
273,434,
271,433,
269,435,
269,436,
268,434,
267,431,
267,431,
267,435,
267,435,
266,433,
266,430,
264,430,
264,433,
263,435,
262,433,
261,430,
260,430,
260,433,
260,434,
261,432,
261,429,
261,429,
261,433,
263,436,
263,434,
263,431,
262,430,
261,434,
262,436,
263,435,
265,432,
264,431,
264,434,
266,437,
268,436,
270,432,
271,431,
271,433,
272,435,
274,434,
275,431,
276,430,
276,431,
276,434,
278,433,
278,431,
277,429,
276,430,
276,433,
278,433,
277,430,
277,428,
277,429,
277,432,
277,431,
278,428,
277,424,
275,424,
274,427,
273,427,
273,424,
272,421,
270,421,
270,423,
268,424,
269,422,
268,419,
266,420,
264,423,
263,424,
262,422,
261,419,
258,418,
256,422,
256,423,
254,421,
253,419,
251,417,
251,420,
251,421,
252,419,
252,415,
251,414,
251,416,
252,418,
252,416,
253,413,
252,412,
252,414,
252,416,
253,415,
253,412,
252,411,
252,413,
251,414,
252,414,
251,411,
250,409,
249,411,
249,415,
249,414,
248,411,
247,408,
245,408,
245,411,
245,410,
245,406,
243,404,
241,405,
240,409,
240,409,
239,406,
239,405,
238,405,
238,409,
239,411,
240,410,
241,411,
242,415,
245,424,
249,432,
254,437,
261,441,
268,452,
277,466,
287,480,
300,491,
313,503,
327,518,
341,538,
358,556,
375,571,
393,585,
409,601,
425,619,
442,636,
459,648,
474,658,
487,668,
499,682,
512,694,
524,702,
533,706,
540,711,
546,717,
552,722,
557,722,
559,719,
558,716,
557,714,
555,712,
552,707,
548,698,
541,688,
534,682,
527,677,
521,669,
512,657,
502,645,
492,637,
483,630,
473,622,
464,610,
453,599,
442,592,
431,588,
422,581,
414,572,
404,563,
394,558,
385,557,
378,553,
371,545,
364,538,
357,534,
352,532,
349,529,
345,523,
340,516,
335,513,
331,513,
327,512,
325,507,
322,503,
319,501,
316,503,
315,505,
314,503,
313,501,
311,501,
312,505,
313,509,
315,509,
316,507,
317,509,
318,513,
319,519,
322,521,
324,521,
326,522,
327,527,
331,532,
333,535,
335,534,
337,534,
338,539,
342,543,
344,545,
347,542,
349,541,
349,543,
351,546,
352,546,
352,543,
352,540,
351,540,
350,542,
351,541,
351,537,
350,532,
349,531,
349,531,
349,529,
347,525,
345,519,
342,517,
339,517,
337,516,
335,511,
331,505,
326,503,
322,503,
319,502,
315,497,
311,491,
305,488,
302,487,
298,486,
295,481,
290,476,
286,472,
282,473,
280,472,
278,468,
275,463,
272,462,
269,462,
269,463,
268,461,
267,456,
266,455,
264,455,
264,457,
263,455,
263,451,
261,450,
259,451,
259,453,
260,453,
260,450,
260,448,
258,450,
259,453,
260,453,
260,450,
262,449,
264,450,
264,454,
266,453,
267,452,
267,450,
266,451,
267,455,
268,455,
269,452,
269,450,
268,451,
268,454,
269,455,
270,453,
269,451,
267,451,
268,455,
268,456,
268,454,
268,451,
267,451,
267,454,
268,456,
270,453,
271,451,
270,451,
269,453,
270,456,
272,454,
271,451,
271,450,
271,452,
271,454,
272,451,
272,448,
271,446,
269,448,
270,450,
270,448,
270,445,
268,443,
267,445,
268,446,
268,446,
268,443,
267,441,
266,442,
267,445,
268,444,
268,440,
266,438,
266,439,
266,442,
266,441,
266,437,
265,435,
264,436,
264,439,
265,438,
265,436,
263,433,
262,433,
261,436,
261,435,
259,431,
257,427,
254,426,
252,428,
252,428,
251,424,
250,420,
248,420,
247,422,
247,423,
246,419,
244,416,
242,416,
241,420,
240,421,
240,420,
240,418,
238,419,
239,425,
242,430,
244,432,
247,434,
249,440,
252,452,
259,462,
267,471,
275,480,
284,491,
295,506,
308,522,
322,536,
337,548,
351,563,
366,581,
381,598,
398,612,
414,623,
428,636,
442,650,
456,665,
469,675,
482,681,
493,687,
501,696,
509,705,
517,709,
523,710,
526,709,
528,711,
531,714,
533,712,
532,707,
531,701,
528,697,
523,693,
520,687,
515,678,
508,668,
500,660,
492,655,
485,648,
476,637,
467,627,
458,618,
449,613,
442,606,
436,596,
428,585,
420,578,
412,575,
406,570,
401,562,
394,554,
386,548,
379,546,
373,543,
368,536,
362,528,
355,523,
348,521,
343,519,
338,514,
333,508,
328,505,
324,505,
321,506,
319,504,
316,500,
312,498,
310,501,
309,504,
310,505,
311,504,
311,504,
312,508,
315,514,
317,516,
319,516,
321,516,
323,520,
326,527,
329,531,
332,531,
334,532,
335,535,
336,540,
340,542,
342,541,
345,540,
346,541,
348,546,
350,547,
352,546,
353,543,
354,544,
355,546,
357,546,
358,542,
358,539,
356,537,
355,538,
355,536,
354,532,
352,526,
349,522,
348,522,
345,521,
342,516,
339,510,
335,506,
332,506,
330,505,
327,500,
324,494,
321,489,
317,488,
314,487,
312,483,
309,476,
305,472,
301,471,
299,471,
296,467,
294,462,
290,458,
286,459,
284,460,
285,459,
283,454,
280,451,
278,452,
276,454,
274,453,
274,450,
272,448,
270,450,
268,453,
268,454,
269,452,
268,449,
266,450,
266,454,
267,455,
267,453,
267,450,
266,451,
267,454,
267,456,
268,454,
267,452,
266,452,
266,456,
268,458,
270,457,
271,454,
270,454,
271,457,
271,459,
271,457,
272,454,
272,454,
271,457,
272,458,
274,457,
274,454,
273,454,
271,456,
272,458,
272,458,
273,454,
272,453,
272,455,
274,457,
276,456,
277,453,
277,450,
277,452,
277,454,
279,454,
280,450,
280,449,
280,451,
281,453,
282,453,
282,449,
281,447,
279,448,
279,451,
279,450,
278,447,
277,445,
274,446,
274,449,
273,448,
273,447,
271,444,
269,445,
268,448,
268,448,
267,445,
266,442,
264,442,
264,445,
264,444,
265,441,
265,437,
264,437,
264,438,
264,439,
263,435,
262,431,
259,430,
258,431,
257,432,
257,429,
255,426,
253,425,
252,428,
251,429,
250,427,
249,424,
246,424,
245,427,
245,431,
246,431,
245,429,
245,431,
246,437,
250,444,
254,450,
259,454,
264,462,
270,475,
279,490,
290,502,
302,513,
313,527,
326,545,
342,564,
359,581,
377,595,
394,611,
411,629,
428,648,
446,663,
464,675,
481,687,
496,701,
510,716,
525,727,
537,734,
547,739,
556,745,
564,753,
572,757,
578,756,
580,755,
581,754,
582,756,
583,754,
584,748,
583,741,
579,735,
574,732,
570,728,
565,718,
560,708,
553,700,
546,695,
539,690,
532,681,
525,671,
515,664,
505,659,
498,654,
491,647,
482,638,
473,631,
464,628,
457,625,
450,620,
443,612,
435,606,
427,604,
421,603,
415,599,
409,591,
401,584,
394,582,
389,580,
384,575,
380,568,
374,561,
369,560,
366,560,
363,558,
360,553,
356,549,
353,550,
350,551,
348,552,
348,550,
347,549,
345,549,
345,553,
346,555,
347,554,
347,554,
348,556,
350,561,
352,563,
355,562,
357,562,
358,563,
360,568,
363,571,
365,570,
366,568,
366,568,
367,572,
368,574,
370,573,
372,570,
371,569,
373,571,
374,572,
376,569,
376,566,
376,564,
376,566,
376,566,
377,563,
376,558,
374,554,
372,554,
371,554,
370,550,
368,543,
366,539,
363,538,
361,537,
359,533,
357,526,
352,521,
348,519,
345,519,
344,515,
341,510,
337,505,
333,504,
330,504,
327,501,
325,496,
321,491,
317,490,
313,491,
311,489,
309,484,
306,480,
302,479,
299,480,
298,479,
295,475,
293,472,
290,471,
287,474,
286,474,
285,472,
283,468,
282,467,
280,470,
281,471,
282,469,
281,466,
280,466,
280,469,
280,470,
281,469,
281,466,
279,465,
279,468,
279,470,
280,468,
281,466,
280,465,
279,468,
279,469,
280,468,
279,466,
279,464,
279,466,
280,468,
282,468,
282,466,
282,463,
283,465,
284,467,
285,467,
286,463,
285,461,
285,463,
286,464,
288,464,
288,462,
288,458,
288,460,
289,461,
291,461,
292,457,
291,454,
290,456,
291,459,
291,459,
290,456,
289,453,
287,452,
287,455,
287,454,
287,451,
285,448,
284,447,
284,450,
284,451,
284,447,
283,443,
280,441,
279,443,
279,443,
279,440,
279,437,
277,436,
277,439,
277,439,
277,437,
275,433,
273,432,
272,435,
272,436,
272,433,
272,430,
271,429,
270,431,
270,433,
269,432,
268,429,
265,427,
264,429,
264,432,
262,431,
261,428,
259,425,
257,427,
258,428,
258,427,
258,423,
257,422,
256,422,
257,425,
256,424,
257,421,
254,419,
252,421,
250,422,
251,423,
250,420,
249,419,
248,420,
249,424,
251,426,
251,425,
252,427,
251,432,
253,440,
257,447,
263,453,
269,460,
276,471,
287,487,
298,501,
310,514,
323,528,
336,546,
352,567,
370,587,
388,604,
406,621,
424,639,
442,661,
461,680,
480,696,
497,710,
512,723,
527,739,
541,753,
556,762,
567,768,
577,775,
584,784,
592,790,
598,793,
602,791,
604,790,
605,791,
605,793,
605,789,
603,781,
598,774,
593,769,
587,765,
582,757,
576,747,
569,738,
561,732,
554,727,
547,719,
540,708,
530,699,
520,692,
513,688,
506,682,
498,674,
490,666,
480,661,
473,660,
466,657,
460,650,
453,643,
446,640,
440,640,
436,637,
432,630,
425,623,
419,618,
413,617,
410,613,
405,607,
400,600,
394,595,
390,595,
387,593,
385,588,
382,582,
378,580,
375,580,
374,581,
373,579,
373,575,
371,574,
371,576,
372,579,
373,579,
374,577,
375,576,
375,580,
376,585,
378,586,
378,584,
380,585,
379,588,
381,591,
383,593,
385,590,
385,589,
384,591,
385,594,
386,594,
386,591,
386,588,
385,589,
386,591,
386,590,
386,585,
386,582,
385,580,
384,580,
383,578,
383,572,
380,566,
377,563,
375,563,
374,560,
374,555,
371,548,
368,545,
364,544,
362,542,
359,535,
357,529,
352,524,
349,523,
346,521,
344,515,
341,509,
336,506,
332,505,
330,504,
326,498,
322,493,
317,489,
313,490,
310,489,
307,485,
304,479,
301,476,
298,476,
296,476,
294,474,
292,468,
289,466,
288,466,
287,467,
287,465,
286,461,
285,459,
282,460,
282,462,
282,461,
282,457,
282,454,
282,456,
283,459,
285,459,
285,455,
285,453,
285,455,
286,458,
288,457,
289,455,
289,452,
289,453,
289,456,
291,457,
291,456,
292,454,
291,454,
291,457,
291,459,
292,457,
292,454,
292,454,
293,458,
294,458,
294,457,
294,453,
293,453,
291,456,
292,458,
291,455,
291,452,
290,451,
290,454,
291,455,
290,454,
289,450,
289,449,
289,452,
290,453,
291,452,
291,448,
289,447,
288,449,
288,452,
289,450,
288,447,
286,443,
283,446,
282,447,
282,446,
281,442,
278,440,
277,441,
276,442,
276,442,
275,438,
274,435,
271,436,
270,439,
270,438,
270,434,
268,432,
267,433,
265,436,
265,436,
264,433,
263,430,
262,430,
262,433,
262,433,
263,429,
262,425,
260,424,
259,427,
259,428,
258,424,
257,420,
255,419,
254,421,
254,420,
254,417,
253,412,
251,411,
250,413,
250,415,
250,413,
250,410,
249,410,
249,415,
250,420,
252,423,
255,426,
258,432,
263,442,
269,454,
277,465,
287,474,
296,486,
308,504,
321,523,
337,540,
353,556,
368,573,
384,595,
402,617,
421,636,
438,652,
453,668,
470,688,
485,707,
502,723,
516,733,
528,745,
539,757,
550,770,
560,778,
570,781,
575,783,
580,786,
584,790,
587,791,
589,787,
589,781,
587,776,
585,775,
582,769,
578,759,
571,750,
563,741,
556,735,
548,728,
541,716,
531,705,
522,697,
513,692,
504,685,
496,675,
488,664,
479,656,
470,652,
464,647,
457,639,
451,630,
445,624,
438,622,
434,619,
429,612,
424,603,
417,597,
411,594,
406,592,
402,586,
396,578,
391,572,
386,570,
383,570,
380,565,
376,559,
371,555,
367,555,
366,556,
365,555,
364,551,
362,549,
360,550,
359,553,
360,555,
360,553,
361,552,
361,555,
364,560,
366,563,
367,563,
368,563,
368,566,
368,571,
370,574,
373,574,
373,573,
372,575,
372,580,
374,582,
375,581,
375,578,
375,579,
376,583,
379,583,
379,580,
380,575,
380,573,
380,573,
381,573,
382,569,
382,563,
381,559,
379,559,
377,557,
376,552,
373,546,
370,541,
368,539,
367,538,
365,532,
363,525,
360,519,
357,517,
354,516,
351,511,
347,504,
343,499,
338,498,
335,497,
332,492,
329,486,
325,480,
321,479,
319,478,
317,475,
314,468,
311,464,
308,464,
306,465,
305,464,
303,459,
301,455,
298,455,
298,457,
297,457,
296,453,
294,450,
290,451,
288,454,
288,455,
286,452,
285,450,
282,450,
281,453,
281,455,
280,453,
281,450,
279,450,
279,453,
280,455,
280,453,
280,450,
280,449,
280,453,
281,454,
282,451,
283,448,
282,448,
282,451,
284,452,
285,451,
286,448,
285,447,
285,450,
285,452,
286,451,
285,448,
284,446,
283,448,
283,450,
284,449,
282,445,
281,443,
281,444,
282,447,
282,445,
282,442,
282,440,
281,441,
281,443,
282,442,
283,439,
282,437,
281,438,
280,439,
281,439,
281,435,
281,433,
280,433,
281,436,
281,436,
280,433,
279,431,
278,432,
277,435,
277,436,
276,434,
276,431,
274,430,
273,433,
273,433,
274,430,
273,427,
272,426,
271,429,
271,429,
271,426,
271,423,
269,421,
269,423,
269,423,
269,421,
268,418,
267,417,
268,418,
268,420,
268,417,
267,414,
266,413,
265,415,
264,417,
264,415,
264,411,
262,409,
262,410,
263,412,
262,410,
263,407,
262,405,
260,406,
260,408,
261,408,
260,404,
258,402,
256,403,
254,406,
254,405,
253,402,
251,400,
248,403,
247,407,
246,408,
245,406,
245,408,
244,412,
245,420,
248,426,
252,433,
256,439,
260,451,
267,467,
276,481,
288,495,
300,509,
313,527,
327,549,
343,569,
360,586,
377,603,
393,622,
411,643,
428,663,
447,679,
463,693,
480,709,
496,727,
511,743,
527,754,
541,762,
551,770,
561,779,
570,787,
580,789,
586,787,
589,786,
592,787,
595,786,
596,781,
595,772,
592,764,
589,759,
584,754,
579,745,
574,733,
565,722,
557,714,
548,707,
541,698,
533,685,
522,674,
511,666,
502,661,
493,652,
483,642,
473,632,
462,626,
454,622,
447,618,
439,610,
431,603,
423,599,
417,597,
412,592,
406,585,
399,576,
392,572,
386,569,
381,565,
376,559,
371,553,
365,549,
360,548,
357,547,
354,543,
351,538,
349,536,
347,538,
347,539,
347,537,
347,535,
347,535,
347,539,
348,543,
350,544,
352,544,
353,545,
353,550,
355,554,
358,555,
360,554,
361,554,
362,559,
364,563,
367,564,
370,562,
370,562,
371,565,
373,568,
376,567,
378,564,
378,561,
378,562,
377,564,
379,562,
379,558,
379,554,
378,553,
379,554,
379,552,
378,546,
376,541,
373,538,
371,539,
369,536,
365,530,
363,524,
359,521,
356,520,
354,517,
352,511,
348,504,
344,501,
340,500,
337,498,
332,492,
329,485,
323,480,
319,480,
317,479,
314,472,
310,467,
306,464,
302,464,
300,463,
298,459,
296,454,
293,451,
291,452,
290,452,
288,450,
286,446,
284,445,
282,446,
280,448,
279,447,
278,443,
276,442,
275,445,
276,447,
276,447,
276,444,
274,443,
274,445,
274,448,
274,447,
274,444,
274,442,
273,444,
274,447,
275,447,
276,444,
275,441,
275,442,
276,445,
278,446,
278,442,
279,439,
279,440,
280,443,
282,442,
284,439,
283,437,
282,437,
282,440,
282,441,
284,437,
284,435,
283,435,
282,438,
282,438,
282,437,
281,433,
280,433,
280,437,
281,437,
282,434,
281,432,
280,432,
280,434,
281,436,
281,434,
280,431,
279,431,
277,432,
277,434,
277,432,
278,428,
277,428,
277,429,
276,431,
277,430,
276,426,
275,423,
274,426,
275,428,
275,426,
275,423,
273,422,
273,424,
272,425,
272,424,
272,421,
271,419,
269,421,
269,423,
270,422,
269,419,
267,417,
265,417,
264,421,
263,420,
263,416,
261,414,
260,414,
260,416,
260,416,
259,412,
258,409,
255,409,
253,412,
253,413,
251,411,
249,408,
246,409,
244,412,
244,413,
243,411,
241,409,
239,409,
238,412,
237,414,
238,412,
238,409,
237,408,
238,411,
238,412,
239,410,
239,408,
238,407,
237,409,
239,411,
240,409,
240,405,
241,404,
240,405,
243,407,
243,405,
243,401,
242,399,
241,401,
241,404,
241,404,
241,401,
241,400,
239,402,
239,405,
239,406,
240,405,
241,406,
243,412,
245,420,
251,428,
256,434,
262,442,
269,455,
278,470,
289,485,
302,498,
316,513,
332,533,
349,555,
367,576,
385,595,
403,614,
422,635,
441,658,
461,678,
480,695,
498,712,
515,730,
531,749,
547,765,
562,776,
575,785,
586,794,
594,804,
604,811,
612,815,
618,815,
620,815,
622,817,
624,817,
625,812,
623,806,
619,800,
615,795,
611,791,
606,783,
600,770,
591,761,
583,754,
575,747,
568,738,
559,726,
549,716,
540,710,
533,704,
526,697,
517,688,
509,679,
500,675,
493,673,
486,668,
478,661,
470,655,
462,653,
457,653,
451,650,
446,643,
440,637,
433,634,
428,633,
423,629,
420,622,
414,615,
408,611,
404,610,
400,606,
397,599,
392,593,
388,590,
384,589,
382,587,
381,583,
379,579,
377,576,
376,579,
376,580,
376,578,
375,576,
375,576,
375,579,
377,581,
379,580,
379,579,
379,578,
379,582,
381,585,
383,585,
384,582,
383,582,
383,585,
384,587,
385,587,
387,583,
385,582,
385,584,
385,587,
385,585,
385,581,
383,578,
383,579,
383,580,
384,577,
384,572,
382,568,
381,567,
379,567,
378,564,
376,558,
373,553,
370,551,
367,551,
365,548,
361,541,
358,535,
353,532,
351,531,
348,526,
346,519,
342,513,
338,508,
335,508,
332,505,
329,499,
326,493,
322,489,
319,490,
318,488,
318,482,
314,476,
312,474,
309,474,
307,474,
305,470,
303,465,
300,462,
298,464,
298,464,
297,461,
296,456,
293,454,
291,455,
290,458,
289,456,
288,452,
286,450,
284,452,
285,452,
285,451,
285,448,
284,447,
282,449,
282,452,
281,451,
281,448,
280,446,
279,448,
279,451,
280,451,
281,448,
281,447,
280,448,
281,451,
283,452,
284,449,
283,447,
282,448,
283,451,
284,451,
285,448,
284,445,
283,445,
282,448,
283,448,
283,445,
282,442,
281,442,
281,444,
282,445,
282,442,
282,439,
281,438,
282,442,
284,442,
285,439,
284,437,
282,435,
281,437,
282,438,
282,437,
282,432,
281,431,
281,433,
281,435,
282,432,
282,428,
280,426,
280,428,
279,429,
279,426,
279,422,
277,420,
276,421,
276,423,
275,421,
274,418,
272,416,
271,417,
270,420,
270,419,
268,416,
267,413,
263,415,
262,417,
261,417,
260,413,
259,411,
257,412,
256,415,
256,414,
256,410,
255,409,
252,410,
252,414,
252,413,
251,410,
250,407,
247,407,
246,410,
245,410,
245,409,
244,406,
243,406,
242,410,
243,410,
243,408,
242,406,
239,405,
239,409,
239,410,
240,409,
240,405,
239,404,
239,408,
239,409,
241,408,
242,405,
242,405,
242,408,
243,409,
244,408,
245,405,
244,404,
244,407,
244,409,
245,408,
246,405,
245,404,
244,406,
245,409,
246,408,
246,404,
245,404,
244,406,
245,408,
245,408,
246,404,
245,403,
245,404,
245,407,
246,407,
245,403,
245,400,
245,400,
244,402,
244,401,
244,398,
241,395,
239,396,
238,398,
236,399,
236,396,
234,393,
233,394,
230,398,
230,400,
230,398,
228,399,
229,402,
229,410,
233,417,
237,422,
242,429,
246,440,
254,456,
264,472,
276,485,
288,500,
301,518,
317,541,
335,564,
354,583,
374,602,
393,624,
413,648,
436,672,
458,692,
479,709,
497,727,
517,748,
535,767,
553,781,
569,792,
581,802,
593,815,
605,826,
615,831,
623,833,
628,833,
631,835,
634,838,
635,836,
635,829,
633,822,
629,818,
626,814,
621,806,
616,795,
609,783,
601,775,
592,768,
585,759,
576,746,
566,735,
556,727,
546,721,
538,714,
528,703,
519,694,
509,687,
500,684,
493,680,
486,673,
477,666,
469,662,
462,662,
456,659,
450,655,
443,650,
436,647,
431,647,
426,646,
421,641,
415,635,
409,630,
404,628,
399,626,
395,620,
390,613,
385,609,
381,609,
379,608,
376,603,
373,598,
371,593,
368,593,
367,594,
367,591,
367,587,
366,585,
366,587,
368,589,
370,589,
370,587,
371,586,
371,588,
373,590,
375,591,
377,588,
378,586,
379,588,
381,590,
382,591,
383,588,
383,586,
383,588,
384,592,
384,592,
384,589,
382,586,
381,585,
380,588,
379,586,
379,582,
377,577,
373,575,
372,576,
370,574,
368,569,
365,563,
362,559,
358,559,
355,556,
353,550,
349,543,
344,539,
340,538,
338,535,
335,529,
333,522,
330,517,
327,516,
325,514,
323,509,
320,503,
317,498,
314,497,
312,496,
310,492,
308,485,
303,481,
301,480,
298,480,
297,477,
294,471,
291,467,
288,467,
287,468,
285,467,
283,462,
280,458,
279,458,
279,460,
279,459,
279,454,
278,451,
277,452,
277,454,
278,454,
279,450,
278,447,
277,447,
277,450,
278,450,
279,447,
279,445,
278,445,
277,448,
279,449,
279,446,
278,444,
278,445,
278,447,
280,449,
281,446,
281,443,
279,443,
279,447,
280,448,
280,446,
280,444,
279,443,
279,447,
280,450,
280,446,
280,443,
280,441,
280,443,
281,445,
282,442,
281,439,
281,437,
281,439,
280,441,
280,440,
280,436,
278,435,
277,436,
276,438,
276,436,
274,433,
273,430,
272,432,
273,434,
273,433,
273,428,
272,426,
272,427,
272,428,
272,428,
272,424,
271,421,
268,422,
268,424,
268,424,
266,420,
265,417,
262,418,
261,421,
260,422,
260,418,
258,415,
255,415,
255,417,
253,417,
253,413,
251,410,
251,409,
250,413,
250,414,
250,412,
250,409,
249,408,
248,411,
249,412,
249,409,
248,406,
247,405,
245,407,
245,408,
246,406,
246,403,
245,401,
244,404,
244,406,
243,405,
242,402,
240,401,
239,403,
239,406,
239,404,
238,400,
239,399,
238,401,
239,403,
239,402,
241,399,
239,397,
239,399,
240,401,
241,400,
243,398,
243,396,
242,398,
244,401,
245,402,
246,399,
245,397,
245,398,
245,401,
244,401,
244,398,
242,395,
240,397,
240,401,
240,401,
240,398,
239,396,
238,396,
237,398,
237,399,
237,396,
236,392,
234,392,
233,395,
233,396,
233,392,
232,390,
231,389,
231,391,
232,393,
231,392,
231,390,
229,390,
228,394,
229,399,
231,400,
234,401,
234,406,
238,416,
242,428,
248,438,
255,447,
263,460,
273,478,
286,498,
301,516,
316,532,
332,552,
349,577,
369,602,
388,624,
408,643,
426,663,
444,686,
463,710,
483,731,
502,746,
519,762,
534,779,
550,796,
565,810,
577,818,
587,824,
594,831,
603,840,
610,842,
615,842,
618,839,
618,837,
619,837,
618,833,
616,825,
612,816,
607,808,
601,802,
594,794,
587,782,
579,769,
568,758,
558,751,
549,742,
540,731,
529,719,
518,708,
508,702,
500,695,
492,687,
483,677,
474,669,
465,667,
458,664,
451,659,
444,653,
437,648,
430,649,
425,646,
422,642,
418,635,
413,631,
408,629,
406,627,
402,621,
398,614,
392,607,
387,605,
382,604,
378,601,
374,595,
369,590,
364,589,
361,589,
358,587,
356,582,
352,578,
349,578,
349,581,
348,582,
349,580,
349,578,
350,580,
349,585,
351,587,
353,585,
354,585,
354,587,
356,592,
359,594,
360,593,
361,591,
361,591,
362,595,
365,597,
366,595,
366,593,
367,593,
367,596,
367,597,
368,595,
368,591,
368,588,
368,589,
369,589,
369,585,
368,579,
365,575,
364,575,
362,575,
362,569,
359,562,
356,558,
352,556,
349,555,
346,550,
343,542,
339,536,
335,534,
331,532,
328,528,
324,519,
320,513,
315,511,
311,510,
308,506,
305,499,
302,495,
298,491,
296,491,
294,488,
292,483,
289,478,
285,476,
283,476,
282,474,
281,469,
279,465,
278,463,
277,464,
277,464,
277,460,
277,457,
276,456,
277,459,
277,459,
278,457,
280,454,
279,453,
280,455,
281,457,
282,455,
283,451,
282,450,
281,453,
281,455,
282,453,
281,450,
280,449,
280,452,
280,454,
281,453,
281,450,
279,448,
279,451,
279,452,
280,451,
280,447,
279,446,
278,448,
278,451,
278,450,
277,446,
277,444,
277,446,
277,448,
279,448,
279,445,
280,442,
279,444,
280,446,
283,446,
283,443,
282,441,
282,441,
282,443,
283,444,
282,441,
282,438,
279,438,
280,441,
280,440,
280,437,
277,434,
276,433,
274,436,
273,436,
273,432,
271,428,
268,427,
268,429,
267,429,
266,427,
265,424,
263,423,
262,425,
261,426,
261,424,
260,421,
258,420,
257,422,
258,423,
259,420,
257,417,
256,415,
254,417,
255,418,
256,416,
256,413,
254,411,
253,411,
254,413,
255,412,
254,409,
253,407,
251,410,
251,412,
251,412,
250,408,
249,406,
248,409,
248,411,
248,411,
247,408,
246,406,
244,407,
245,410,
246,410,
246,408,
246,405,
245,406,
245,409,
246,410,
247,406,
247,404,
246,406,
247,408,
248,409,
249,407,
248,404,
247,405,
247,408,
247,408,
248,405,
247,403,
245,402,
244,405,
243,406,
243,403,
241,398,
239,398,
238,400,
238,401,
237,398,
237,394,
235,394,
234,396,
233,399,
234,397,
234,396,
233,397,
234,402,
236,408,
238,412,
241,416,
244,424,
249,437,
257,451,
267,465,
278,477,
289,492,
303,512,
318,534,
336,554,
352,573,
370,593,
387,616,
406,641,
425,662,
444,679,
461,697,
478,718,
495,739,
511,756,
526,768,
538,779,
549,792,
559,805,
568,813,
575,817,
581,821,
585,823,
587,827,
588,827,
589,822,
586,815,
584,810,
579,805,
574,798,
569,787,
560,774,
550,763,
541,756,
532,746,
522,732,
511,718,
500,706,
489,699,
479,689,
469,677,
459,664,
448,654,
438,649,
430,643,
422,635,
414,624,
405,616,
397,613,
391,610,
386,603,
381,594,
376,587,
371,585,
367,582,
363,577,
359,569,
353,563,
349,561,
345,560,
342,557,
339,551,
336,546,
333,546,
332,547,
331,545,
330,542,
327,540,
326,542,
325,546,
325,548,
327,546,
326,546,
327,549,
330,555,
332,558,
335,559,
337,559,
338,563,
340,569,
344,573,
346,573,
348,573,
349,576,
351,580,
353,583,
356,583,
357,581,
358,581,
359,584,
361,585,
362,582,
362,578,
360,575,
359,576,
360,576,
360,572,
358,566,
356,562,
354,561,
352,560,
351,555,
348,548,
344,543,
340,541,
338,539,
335,532,
331,522,
326,515,
322,512,
320,510,
317,505,
314,497,
310,490,
307,487,
305,486,
304,481,
303,474,
298,468,
295,466,
293,465,
292,462,
290,456,
287,451,
284,450,
282,452,
281,450,
279,446,
278,442,
276,441,
273,443,
272,444,
270,440,
269,436,
266,436,
265,440,
265,440,
264,438,
264,434,
262,435,
261,438,
262,439,
263,437,
263,434,
262,434,
263,437,
264,437,
266,435,
265,433,
265,432,
265,436,
266,438,
266,437,
266,434,
267,434,
266,437,
266,439,
267,439,
267,435,
266,434,
265,436,
267,438,
267,437,
268,434,
268,433,
268,434,
270,436,
270,435,
271,432,
270,431,
271,432,
272,435,
274,434,
275,431,
274,429,
274,431,
274,434,
275,434,
276,431,
275,429,
274,430,
274,432,
275,432,
275,428,
274,426,
272,426,
271,429,
271,430,
271,426,
270,422,
269,421,
267,423,
267,423,
267,420,
267,417,
267,416,
267,420,
267,420,
267,417,
267,414,
264,413,
263,415,
264,416,
263,414,
262,411,
259,409,
257,411,
256,413,
256,411,
254,408,
252,406,
250,409,
248,410,
249,408,
247,403,
246,402,
245,404,
244,405,
244,404,
243,400,
243,398,
241,400,
240,402,
240,401,
239,397,
236,395,
234,396,
233,398,
232,398,
231,393,
230,391,
227,392,
226,395,
226,395,
226,392,
224,391,
223,392,
224,397,
226,399,
229,400,
231,401,
233,407,
237,417,
243,427,
250,435,
256,446,
264,461,
275,480,
288,499,
303,516,
319,534,
334,556,
351,582,
370,607,
390,628,
409,649,
427,672,
447,699,
466,723,
485,742,
503,760,
518,779,
534,799,
549,817,
563,830,
575,839,
585,847,
593,858,
599,866,
605,869,
608,868,
609,868,
609,869,
610,869,
609,865,
607,857,
602,849,
595,843,
589,838,
584,829,
578,817,
569,807,
559,799,
551,792,
543,781,
534,769,
524,757,
513,749,
503,744,
494,737,
486,726,
477,717,
468,711,
460,709,
452,704,
446,698,
439,692,
432,687,
426,686,
423,684,
419,678,
414,672,
409,667,
405,667,
402,663,
399,655,
394,647,
389,641,
383,639,
380,636,
377,630,
373,621,
369,615,
367,614,
364,612,
361,607,
358,601,
354,597,
352,598,
350,598,
350,596,
350,592,
349,591,
348,594,
349,597,
351,597,
351,596,
352,595,
352,599,
355,603,
357,604,
359,603,
360,603,
362,605,
363,609,
366,610,
368,607,
369,605,
369,605,
370,608,
372,607,
372,603,
373,600,
372,599,
372,600,
372,597,
372,592,
370,587,
368,584,
367,584,
365,581,
363,575,
361,568,
357,564,
353,562,
350,559,
347,552,
343,544,
339,539,
334,537,
331,534,
327,526,
323,518,
317,513,
313,511,
310,508,
307,503,
304,495,
300,491,
297,489,
295,488,
294,483,
292,477,
289,472,
288,472,
288,471,
286,467,
286,462,
284,457,
283,457,
283,457,
282,455,
283,450,
281,446,
280,446,
279,449,
281,448,
280,444,
280,442,
279,443,
279,445,
281,444,
282,441,
282,437,
281,439,
281,442,
281,442,
281,439,
281,436,
281,437,
280,440,
280,441,
282,438,
281,435,
280,435,
280,437,
281,438,
281,436,
280,433,
279,432,
280,436,
281,437,
281,434,
281,432,
279,432,
278,435,
278,436,
278,434,
278,430,
276,430,
275,433,
275,433,
275,431,
274,428,
273,426,
271,428,
272,430,
273,428,
272,425,
271,423,
270,425,
271,426,
271,425,
271,421,
271,418,
271,419,
271,421,
272,419,
272,416,
271,414,
270,416,
271,418,
271,418,
270,414,
269,412,
268,412,
269,415,
270,415,
269,411,
268,408,
267,408,
267,411,
267,411,
267,407,
266,404,
264,404,
264,406,
263,406,
263,401,
262,397,
260,396,
259,398,
259,398,
258,395,
256,391,
253,390,
252,393,
252,393,
251,390,
251,388,
250,389,
249,394,
250,398,
252,399,
255,401,
256,407,
261,419,
266,431,
273,441,
281,452,
289,467,
298,487,
309,508,
322,527,
335,547,
350,568,
364,595,
381,623,
398,647,
415,669,
431,691,
446,717,
462,743,
479,764,
493,781,
507,799,
520,818,
533,836,
544,848,
554,856,
562,863,
568,871,
574,879,
580,883,
584,880,
585,877,
586,875,
584,875,
584,870,
581,861,
576,851,
569,844,
564,837,
557,829,
551,817,
543,805,
535,795,
527,786,
519,778,
513,767,
505,755,
495,746,
488,742,
482,735,
476,726,
469,716,
462,708,
455,706,
449,704,
444,697,
438,689,
432,684,
427,682,
423,679,
420,672,
416,663,
411,655,
405,651,
401,648,
397,640,
391,631,
385,623,
381,620,
378,617,
374,612,
371,605,
367,600,
364,598,
363,599,
362,597,
361,593,
360,589,
359,590,
359,593,
360,594,
362,592,
362,591,
362,592,
363,598,
364,601,
366,600,
367,599,
366,602,
367,607,
368,610,
370,610,
371,608,
372,609,
373,614,
375,615,
376,611,
377,607,
377,607,
378,610,
379,610,
380,606,
379,600,
377,596,
376,595,
377,593,
377,587,
377,580,
375,574,
374,572,
373,569,
372,562,
371,553,
368,546,
363,542,
360,537,
357,531,
354,522,
348,513,
344,509,
341,507,
340,501,
337,494,
333,487,
329,485,
327,484,
324,480,
322,474,
319,468,
316,468,
313,467,
312,465,
310,460,
307,456,
305,457,
304,458,
303,457,
302,453,
301,450,
299,450,
299,451,
299,451,
298,448,
297,444,
294,443,
294,447,
294,448,
294,444,
293,442,
291,442,
290,444,
291,445,
291,441,
291,438,
291,437,
290,439,
292,441,
292,439,
292,435,
290,435,
289,437,
289,439,
290,438,
290,434,
289,433,
289,436,
290,438,
290,436,
289,433,
289,431,
290,432,
290,434,
292,432,
292,428,
292,426,
291,429,
290,432,
291,431,
291,427,
290,426,
289,429,
289,431,
290,430,
290,427,
289,425,
288,426,
287,429,
287,429,
288,426,
287,423,
285,423,
285,426,
284,425,
285,421,
283,417,
282,417,
280,419,
279,419,
278,416,
277,412,
275,410,
275,411,
274,410,
272,406,
271,402,
271,400,
269,401,
269,401,
269,396,
267,392,
265,390,
263,391,
263,392,
262,388,
259,382,
257,380,
256,383,
255,383,
254,381,
253,378,
252,377,
252,382,
253,386,
254,389,
256,390,
257,396,
261,408,
267,421,
273,432,
281,444,
288,458,
298,478,
310,501,
322,522,
336,541,
350,563,
365,589,
381,616,
398,640,
416,661,
432,681,
448,705,
463,730,
478,752,
492,768,
505,783,
515,800,
525,817,
535,829,
543,836,
548,843,
553,848,
556,855,
560,859,
561,856,
561,852,
559,849,
557,848,
556,844,
553,834,
550,824,
545,815,
539,809,
535,801,
529,789,
522,776,
515,765,
508,758,
501,750,
495,738,
488,726,
480,715,
473,710,
467,704,
460,695,
453,686,
445,677,
438,674,
432,670,
427,663,
422,654,
414,646,
408,642,
403,638,
399,631,
395,620,
389,609,
383,604,
379,600,
374,593,
370,583,
366,575,
361,571,
359,568,
356,564,
354,557,
351,551,
349,550,
349,552,
348,552,
348,549,
347,547,
346,550,
347,555,
349,558,
352,558,
353,557,
353,560,
354,566,
356,569,
357,569,
357,568,
358,569,
360,574,
362,576,
364,575,
365,573,
364,573,
365,576,
367,577,
368,573,
368,569,
367,566,
367,567,
368,567,
367,562,
367,555,
366,550,
365,549,
365,547,
364,542,
363,535,
360,529,
357,526,
357,523,
355,518,
353,509,
349,503,
346,500,
344,498,
342,493,
339,486,
335,479,
332,477,
328,475,
325,471,
322,464,
318,458,
314,455,
312,455,
310,452,
308,445,
306,440,
303,438,
302,439,
301,436,
300,432,
298,427,
296,426,
295,428,
294,427,
293,424,
291,420,
289,418,
288,420,
287,420,
287,417,
285,413,
284,412,
282,415,
282,416,
281,414,
281,411,
280,410,
279,414,
281,416,
281,414,
279,410,
279,410,
279,412,
280,415,
281,412,
281,410,
281,409,
281,411,
282,414,
283,413,
285,410,
285,409,
285,411,
287,413,
288,412,
288,409,
287,407,
286,411,
287,414,
288,414,
288,411,
288,409,
288,411,
289,413,
290,413,
290,410,
288,407,
287,407,
287,409,
287,409,
286,405,
285,402,
283,402,
282,404,
281,404,
281,400,
280,396,
278,396,
277,398,
276,398,
276,395,
275,392,
273,391,
272,394,
272,395,
272,392,
270,389,
270,388,
269,390,
270,391,
271,388,
271,384,
270,383,
269,385,
270,386,
269,383,
268,379,
265,379,
263,381,
262,383,
261,381,
259,378,
258,376,
256,377,
257,379,
257,377,
256,373,
256,371,
255,372,
255,374,
255,373,
255,369,
253,367,
252,369,
253,372,
254,372,
254,369,
254,367,
253,369,
254,372,
254,371,
255,368,
254,366,
253,368,
254,370,
255,371,
253,368,
253,365,
252,366,
253,370,
252,371,
253,369,
252,366,
251,367,
249,370,
250,372,
249,369,
249,367,
247,367,
247,371,
247,372,
247,370,
246,367,
244,367,
243,369,
243,370,
242,369,
242,367,
242,367,
242,370,
243,373,
244,372,
244,368,
244,368,
244,371,
245,374,
247,372,
247,369,
246,367,
246,370,
247,373,
249,372,
250,370,
250,368,
249,370,
250,372,
251,371,
252,367,
252,366,
251,367,
252,370,
253,370,
253,367,
251,364,
250,366,
249,369,
250,369,
248,366,
247,365,
246,367,
245,370,
245,370,
245,368,
244,366,
242,368,
242,373,
242,377,
243,378,
244,380,
245,387,
247,400,
253,411,
260,421,
267,432,
276,448,
287,469,
300,489,
315,508,
331,527,
347,550,
365,578,
382,604,
402,628,
420,650,
438,673,
456,698,
475,722,
493,742,
509,758,
524,775,
536,793,
550,808,
560,819,
570,825,
576,832,
583,839,
588,845,
592,846,
594,842,
595,838,
592,837,
592,835,
590,828,
587,818,
582,807,
576,801,
571,795,
566,786,
559,775,
552,765,
544,757,
537,752,
531,745,
524,736,
516,726,
508,719,
501,716,
496,713,
490,706,
484,700,
477,697,
471,696,
467,694,
462,690,
457,685,
452,684,
447,684,
445,683,
442,679,
437,672,
432,668,
427,666,
425,664,
422,657,
419,648,
414,642,
409,639,
405,636,
402,628,
398,620,
392,613,
389,611,
386,608,
385,602,
381,595,
377,590,
374,590,
372,590,
372,587,
370,583,
369,580,
367,581,
366,583,
367,582,
367,578,
366,577,
365,579,
365,582,
367,582,
367,578,
367,576,
367,577,
367,580,
368,579,
369,575,
369,572,
368,572,
367,574,
368,573,
368,569,
368,564,
366,562,
366,562,
366,561,
366,554,
365,549,
363,544,
361,544,
361,541,
360,534,
357,528,
356,522,
354,522,
353,519,
352,513,
349,507,
346,503,
344,503,
342,501,
340,496,
338,489,
334,484,
331,483,
328,482,
326,477,
323,470,
320,466,
316,465,
315,464,
312,460,
309,454,
307,450,
304,450,
302,451,
301,448,
299,444,
296,441,
294,441,
294,443,
292,442,
292,439,
289,436,
287,436,
287,439,
287,438,
286,435,
285,432,
284,433,
284,436,
285,437,
286,434,
286,431,
286,432,
287,436,
288,436,
289,433,
288,431,
289,431,
291,434,
292,435,
294,433,
294,430,
293,430,
293,433,
295,433,
295,431,
295,428,
294,428,
294,431,
295,432,
295,429,
294,425,
292,424,
292,426,
292,427,
292,425,
291,421,
290,419,
289,421,
289,422,
288,420,
287,416,
285,413,
283,416,
284,418,
283,417,
283,413,
281,411,
280,412,
279,414,
277,413,
275,409,
272,407,
271,409,
270,410,
271,409,
270,406,
270,403,
270,404,
270,408,
271,406,
271,402,
271,400,
269,400,
269,403,
269,402,
269,399,
269,395,
268,396,
267,398,
268,398,
269,395,
268,392,
267,392,
267,395,
267,396,
268,393,
267,390,
265,390,
265,393,
264,393,
265,391,
264,387,
263,387,
261,389,
260,391,
259,390,
257,387,
255,387,
252,389,
251,390,
252,388,
251,384,
251,384,
251,386,
252,388,
252,387,
252,384,
252,383,
252,386,
252,388,
254,388,
255,384,
255,383,
255,386,
255,387,
255,385,
256,382,
254,381,
253,382,
254,385,
255,385,
255,383,
254,381,
253,383,
252,387,
251,388,
252,385,
251,383,
250,384,
249,388,
250,389,
251,387,
251,385,
249,387,
249,390,
250,391,
250,388,
250,385,
249,386,
249,389,
250,390,
250,387,
248,384,
247,383,
246,387,
246,387,
247,385,
246,382,
245,380,
244,383,
246,384,
246,381,
245,377,
244,375,
244,378,
244,380,
244,379,
243,375,
243,374,
243,376,
245,378,
246,378,
247,376,
246,376,
246,381,
248,387,
249,390,
251,394,
252,400,
255,410,
261,424,
269,435,
277,445,
285,458,
295,477,
307,496,
320,515,
335,531,
349,549,
364,573,
379,597,
395,618,
410,636,
423,653,
437,672,
451,694,
466,711,
480,723,
491,735,
502,748,
512,762,
522,773,
531,778,
538,780,
542,784,
547,790,
550,790,
553,787,
552,782,
550,778,
549,776,
548,772,
546,764,
543,755,
539,747,
534,742,
530,736,
525,727,
518,716,
511,708,
503,703,
496,698,
490,691,
483,682,
476,676,
469,674,
464,672,
458,668,
452,663,
445,659,
440,659,
437,661,
433,659,
429,655,
425,652,
421,652,
418,653,
415,650,
412,644,
407,640,
404,638,
402,637,
400,632,
397,624,
392,617,
388,612,
384,609,
382,604,
379,595,
374,589,
369,584,
366,584,
364,581,
362,575,
359,569,
356,567,
355,567,
355,567,
353,563,
351,560,
349,560,
349,563,
350,564,
352,563,
352,560,
351,561,
351,564,
352,566,
352,565,
352,562,
351,562,
350,565,
351,566,
351,565,
352,561,
351,559,
350,560,
351,560,
350,558,
349,553,
348,549,
346,549,
347,548,
346,544,
346,538,
343,534,
343,532,
341,533,
341,528,
341,522,
338,516,
336,515,
334,514,
333,511,
331,504,
329,500,
325,498,
324,498,
322,496,
320,489,
318,483,
315,481,
313,481,
312,478,
311,472,
309,467,
305,464,
303,465,
303,464,
302,458,
300,453,
297,451,
295,452,
295,452,
294,449,
291,445,
290,444,
288,446,
289,447,
289,444,
288,441,
287,440,
287,443,
287,444,
288,442,
288,439,
287,437,
286,440,
286,442,
287,441,
287,437,
285,436,
285,439,
285,441,
286,439,
287,437,
286,436,
286,438,
285,441,
285,440,
285,437,
284,436,
283,437,
283,440,
283,440,
282,437,
281,436,
281,437,
280,439,
281,439,
282,436,
281,434,
280,435,
280,437,
281,437,
282,433,
281,430,
280,430,
280,432,
280,433,
279,430,
279,427,
278,426,
277,429,
277,428,
278,425,
278,422,
276,422,
275,424,
276,425,
275,421,
274,417,
273,417,
273,419,
273,419,
275,416,
274,412,
274,412,
274,414,
275,415,
276,413,
277,410,
276,408,
275,410,
276,412,
277,410,
277,407,
275,405,
274,407,
274,409,
274,408,
274,404,
272,403,
271,405,
270,407,
269,407,
269,404,
267,401,
266,404,
266,407,
266,407,
265,403,
263,401,
260,402,
259,405,
259,404,
258,401,
256,399,
254,400,
252,404,
253,405,
252,402,
252,399,
251,400,
251,403,
253,404,
254,401,
253,399,
253,400,
253,403,
254,405,
255,401,
255,398,
255,399,
255,403,
255,405,
256,403,
256,400,
256,399,
256,402,
257,403,
258,401,
257,398,
256,398,
256,400,
258,403,
259,402,
259,400,
257,399,
258,402,
258,405,
258,403,
258,401,
258,400,
257,403,
256,406,
256,404,
255,400,
254,399,
253,401,
253,403,
253,403,
254,400,
253,398,
252,399,
252,401,
253,400,
253,397,
251,393,
248,395,
246,397,
247,397,
246,393,
243,391,
241,392,
240,394,
241,395,
241,392,
240,390,
239,392,
239,397,
241,400,
242,401,
244,404,
245,411,
249,422,
254,432,
262,440,
269,450,
276,464,
287,481,
298,499,
311,514,
324,530,
337,548,
351,571,
367,592,
383,608,
398,623,
412,641,
425,660,
440,678,
453,692,
464,702,
475,713,
484,726,
494,737,
504,744,
511,747,
514,750,
516,755,
519,759,
520,758,
520,753,
517,749,
514,747,
512,744,
508,738,
503,727,
497,717,
491,711,
486,707,
480,699,
474,688,
468,678,
460,671,
453,667,
448,660,
442,651,
435,642,
428,637,
423,635,
418,631,
413,623,
407,616,
401,614,
397,614,
393,611,
390,607,
386,602,
381,599,
378,599,
375,598,
372,593,
368,586,
365,584,
360,583,
358,582,
355,577,
350,569,
347,565,
344,564,
340,562,
338,558,
336,552,
332,549,
329,549,
327,549,
327,546,
326,541,
325,540,
324,542,
325,546,
326,546,
327,543,
327,543,
327,546,
329,550,
332,551,
334,549,
335,549,
337,552,
338,556,
341,558,
342,556,
343,554,
342,556,
344,558,
345,558,
346,555,
345,552,
344,553,
345,555,
346,553,
346,548,
345,544,
343,543,
342,543,
341,541,
340,535,
337,529,
335,526,
333,526,
330,525,
329,518,
326,512,
323,508,
321,507,
319,504,
316,497,
314,490,
310,485,
308,485,
306,483,
305,477,
303,470,
300,466,
298,466,
296,466,
295,462,
292,457,
290,454,
287,455,
286,455,
285,452,
283,448,
281,446,
279,447,
277,450,
276,448,
275,444,
273,442,
272,444,
271,447,
271,445,
270,442,
269,441,
269,444,
269,447,
270,447,
271,445,
270,443,
270,445,
270,448,
271,449,
272,447,
272,446,
271,447,
272,450,
272,450,
274,447,
273,445,
273,445,
272,448,
273,448,
274,446,
274,443,
274,443,
274,446,
275,448,
278,445,
278,442,
278,441,
279,443,
280,444,
282,441,
283,438,
281,437,
281,440,
282,441,
283,438,
284,435,
281,433,
281,436,
281,437,
283,435,
283,431,
281,430,
279,433,
279,435,
278,432,
278,428,
276,427,
273,429,
273,430,
273,429,
273,425,
270,423,
269,425,
267,427,
267,426,
265,422,
263,420,
263,421,
262,423,
261,422,
260,418,
258,414,
257,415,
257,417,
258,416,
257,414,
257,411,
256,411,
256,414,
257,414,
259,412,
259,408,
258,409,
259,413,
260,413,
260,410,
259,408,
258,408,
258,411,
258,413,
258,410,
257,408,
255,408,
254,411,
254,413,
255,410,
254,407,
252,407,
251,409,
252,411,
251,410,
252,407,
251,405,
249,408,
250,410,
251,408,
251,404,
251,403,
250,406,
250,409,
250,408,
249,406,
247,405,
246,408,
247,410,
248,410,
247,407,
245,406,
246,408,
247,411,
248,411,
250,408,
249,407,
249,409,
248,412,
249,413,
249,410,
249,408,
249,409,
250,412,
251,412,
253,410,
253,408,
253,409,
254,413,
255,413,
257,411,
255,408,
254,408,
255,411,
256,412,
256,410,
255,407,
253,407,
252,411,
253,411,
252,409,
251,405,
250,404,
248,406,
248,407,
247,405,
247,402,
245,401,
245,404,
244,405,
244,403,
244,400,
242,399,
242,404,
243,409,
246,410,
249,412,
251,417,
255,425,
260,437,
266,446,
273,455,
281,467,
289,484,
301,502,
313,518,
326,534,
339,552,
352,573,
366,596,
382,617,
397,634,
411,651,
425,671,
441,693,
456,710,
471,724,
483,737,
494,752,
505,768,
516,779,
525,786,
532,793,
537,800,
542,806,
546,810,
550,810,
551,807,
551,806,
550,806,
549,803,
546,795,
541,786,
535,779,
528,775,
524,769,
517,759,
511,748,
503,741,
495,736,
489,731,
483,723,
476,714,
467,707,
460,705,
454,703,
449,698,
443,692,
437,688,
432,689,
428,689,
426,686,
423,682,
419,679,
416,681,
414,682,
412,679,
410,675,
407,671,
403,670,
401,670,
399,666,
397,660,
393,653,
389,650,
386,649,
384,645,
380,637,
376,630,
371,627,
369,626,
368,621,
366,615,
363,611,
360,610,
359,611,
358,610,
356,607,
354,603,
352,603,
351,606,
352,606,
352,604,
352,602,
352,602,
352,606,
353,607,
353,605,
353,602,
352,602,
353,606,
354,607,
356,605,
356,601,
355,599,
356,601,
356,602,
357,600,
357,595,
355,591,
353,592,
352,591,
352,588,
349,581,
347,577,
344,576,
344,575,
343,571,
341,564,
339,560,
337,558,
337,556,
336,552,
334,544,
331,538,
329,536,
328,534,
328,529,
326,523,
323,516,
320,514,
319,514,
317,510,
316,503,
312,497,
309,494,
308,493,
308,491,
305,486,
303,480,
299,479,
297,480,
296,479,
295,475,
293,471,
291,471,
289,472,
289,472,
288,469,
287,466,
285,466,
284,469,
285,469,
286,467,
286,463,
285,463,
284,466,
285,467,
285,465,
285,462,
284,460,
284,463,
283,465,
284,463,
284,460,
282,459,
280,460,
281,462,
282,460,
282,457,
281,457,
281,459,
281,461,
282,460,
281,457,
280,454,
280,456,
280,459,
281,459,
282,456,
282,454,
282,455,
282,458,
284,457,
285,453,
285,451,
285,453,
285,456,
285,454,
286,451,
285,448,
284,447,
285,449,
285,448,
286,445,
285,442,
283,441,
283,443,
283,444,
283,439,
282,436,
280,435,
278,438,
278,438,
277,434,
276,431,
274,430,
272,432,
272,433,
273,430,
272,426,
270,424,
269,426,
268,427,
268,424,
267,421,
265,419,
264,421,
265,422,
265,420,
265,416,
265,415,
264,418,
264,419,
264,418,
265,414,
263,412,
264,414,
264,415,
266,414,
266,411,
265,410,
266,411,
266,414,
268,414,
269,410,
267,407,
266,408,
266,411,
267,410,
267,407,
266,405,
264,406,
264,409,
264,410,
263,406,
262,404,
261,405,
261,408,
260,409,
261,407,
260,404,
259,404,
258,407,
258,408,
258,406,
258,403,
256,404,
256,407,
256,409,
256,407,
255,405,
254,405,
253,409,
253,410,
253,409,
253,406,
251,406,
251,409,
251,411,
251,409,
251,407,
250,406,
250,409,
251,412,
252,410,
252,407,
251,406,
250,408,
251,410,
252,409,
253,405,
253,403,
253,406,
254,408,
255,407,
254,403,
253,400,
251,402,
250,405,
250,403,
250,400,
248,398,
246,399,
245,401,
245,401,
243,397,
243,394,
241,395,
241,398,
241,398,
241,395,
240,393,
239,395,
240,400,
241,402,
243,402,
245,404,
247,410,
250,421,
257,431,
264,439,
271,448,
279,462,
288,482,
301,499,
313,516,
326,533,
340,553,
355,579,
372,604,
390,627,
407,646,
423,668,
440,693,
458,716,
476,736,
491,752,
505,770,
517,790,
531,808,
544,821,
553,830,
561,839,
568,850,
574,859,
579,862,
582,862,
583,861,
583,862,
584,863,
585,858,
583,851,
579,843,
575,839,
572,835,
569,828,
564,817,
557,806,
550,801,
543,795,
537,787,
531,776,
525,766,
518,760,
511,757,
505,751,
498,743,
492,736,
484,733,
479,733,
475,731,
470,726,
465,721,
460,719,
455,721,
453,721,
449,718,
446,713,
443,712,
439,713,
437,711,
435,706,
431,700,
427,696,
424,694,
422,690,
420,683,
416,675,
410,670,
405,667,
402,664,
399,658,
396,650,
392,644,
389,642,
387,640,
387,636,
385,630,
382,627,
382,629,
383,631,
383,630,
384,626,
383,624,
382,627,
383,630,
385,631,
385,629,
385,628,
385,631,
386,634,
387,634,
387,631,
387,629,
385,630,
385,631,
384,630,
384,627,
383,622,
380,622,
380,623,
379,621,
379,617,
376,612,
373,610,
372,610,
372,608,
371,602,
370,595,
368,591,
368,590,
367,587,
366,580,
365,573,
362,569,
360,567,
359,564,
357,556,
355,548,
351,542,
349,539,
347,536,
345,530,
342,522,
338,517,
335,516,
332,513,
330,508,
327,501,
324,497,
321,497,
319,497,
319,493,
317,487,
316,484,
313,484,
312,485,
311,482,
309,476,
307,472,
304,473,
304,474,
303,472,
304,468,
303,464,
302,465,
302,467,
304,466,
303,463,
302,460,
301,460,
301,462,
302,464,
301,460,
300,457,
299,459,
297,462,
297,463,
296,460,
295,456,
293,457,
293,460,
294,461,
294,459,
294,456,
292,456,
292,459,
293,460,
294,456,
293,453,
292,452,
292,454,
292,456,
294,454,
295,451,
294,449,
294,452,
296,454,
297,451,
296,448,
295,445,
295,447,
296,447,
296,446,
297,442,
295,440,
294,441,
294,441,
295,440,
294,436,
292,434,
291,435,
292,437,
292,436,
293,432,
291,431,
290,432,
290,433,
291,432,
291,428,
289,424,
289,425,
289,426,
289,425,
287,422,
285,419,
282,419,
282,421,
281,421,
281,417,
279,413,
278,413,
278,415,
278,415,
278,411,
278,409,
277,408,
276,411,
276,412,
275,410,
274,407,
273,407,
273,410,
274,411,
273,408,
273,405,
271,405,
271,407,
271,409,
272,406,
272,404,
271,402,
271,405,
271,406,
272,405,
271,401,
270,400,
269,402,
270,405,
271,403,
270,400,
269,398,
269,400,
268,402,
269,401,
268,398,
267,397,
266,399,
265,401,
265,401,
265,398,
264,396,
262,398,
262,400,
263,400,
263,396,
262,395,
262,396,
263,399,
263,400,
263,396,
262,394,
261,396,
262,400,
262,400,
262,398,
263,394,
261,395,
261,398,
261,399,
261,395,
259,392,
257,392,
257,395,
258,395,
258,392,
258,389,
256,389,
255,392,
255,394,
253,390,
252,387,
251,386,
248,389,
249,390,
248,388,
247,385,
248,385,
249,388,
249,391,
251,392,
253,391,
254,395,
257,404,
262,415,
267,424,
273,432,
281,443,
289,460,
301,479,
314,495,
326,512,
340,531,
355,555,
372,581,
389,606,
407,627,
424,651,
441,677,
459,704,
478,727,
496,746,
512,765,
527,785,
542,806,
555,822,
568,833,
578,844,
586,855,
595,867,
603,874,
607,875,
610,875,
611,876,
612,877,
612,876,
610,870,
606,861,
601,853,
597,848,
592,840,
587,827,
579,814,
572,803,
564,796,
557,787,
550,774,
541,760,
530,750,
520,742,
511,734,
502,725,
493,713,
483,704,
475,699,
469,695,
464,688,
459,679,
452,674,
446,673,
442,671,
438,666,
433,659,
429,653,
425,650,
422,648,
419,643,
415,634,
409,627,
405,624,
400,622,
397,618,
393,610,
389,604,
384,601,
382,600,
381,596,
379,591,
377,586,
375,586,
374,589,
374,589,
374,586,
374,584,
374,586,
374,590,
376,593,
377,592,
378,591,
379,594,
380,599,
383,603,
384,602,
385,602,
386,604,
387,608,
389,610,
391,609,
393,605,
393,605,
394,608,
396,609,
398,606,
397,601,
396,598,
395,599,
394,599,
394,595,
393,589,
390,584,
388,583,
386,581,
385,576,
383,568,
380,562,
377,558,
374,555,
372,549,
369,541,
363,533,
359,530,
356,527,
354,522,
351,512,
348,505,
344,502,
342,500,
340,496,
337,489,
334,482,
330,480,
327,479,
326,475,
324,468,
320,463,
317,460,
314,460,
313,458,
311,452,
308,447,
306,446,
305,446,
305,445,
305,442,
304,438,
302,438,
301,440,
300,441,
299,437,
299,434,
298,434,
297,437,
297,438,
297,436,
296,433,
295,433,
295,437,
295,439,
297,437,
297,434,
297,433,
297,435,
298,438,
299,436,
300,434,
298,433,
298,436,
299,439,
299,438,
299,435,
298,434,
297,435,
298,438,
298,438,
298,435,
297,434,
296,436,
295,439,
295,438,
294,434,
293,431,
292,433,
292,435,
291,434,
291,430,
289,429,
287,429,
286,432,
285,430,
284,426,
282,423,
280,423,
279,425,
280,425,
282,421,
282,417,
281,417,
282,419,
283,418,
284,414,
282,411,
280,410,
280,412,
281,413,
280,410,
281,406,
280,406,
280,409,
281,409,
282,406,
280,402,
279,401,
278,403,
278,405,
279,401,
278,398,
277,396,
277,398,
276,398,
275,395,
274,392,
271,390,
270,393,
269,394,
269,392,
268,388,
265,387,
262,391,
263,393,
263,393,
261,390,
260,388,
258,390,
258,392,
258,390,
258,386,
257,384,
256,385,
257,388,
258,388,
258,385,
257,384,
256,385,
256,388,
257,388,
257,385,
255,382,
254,384,
253,387,
253,386,
253,384,
253,381,
252,382,
252,385,
254,385,
254,382,
253,380,
252,380,
253,384,
253,386,
254,383,
254,381,
253,381,
252,383,
253,385,
254,383,
255,380,
255,379,
253,382,
253,383,
253,381,
252,378,
250,377,
249,380,
248,382,
247,381,
246,377,
245,376,
242,379,
242,382,
242,381,
241,380,
240,380,
240,386,
241,392,
244,397,
248,399,
252,406,
256,418,
263,433,
273,448,
284,461,
295,477,
308,498,
324,524,
343,548,
362,570,
381,594,
400,623,
422,652,
444,679,
466,703,
488,727,
507,753,
527,781,
547,806,
564,825,
580,844,
594,863,
608,882,
621,898,
632,908,
640,915,
644,923,
644,931,
644,935,
644,934,
645,930,
644,927,
645,925,
644,921,
644,913,
645,902,
644,894,
643,887,
636,879,
631,867,
624,854,
615,842,
606,835,
598,828,
591,818,
583,806,
574,798,
566,793,
559,789,
552,783,
545,774,
537,768,
530,765,
524,765,
519,762,
514,756,
509,752,
503,751,
500,752,
497,750,
493,745,
488,741,
484,739,
480,738,
477,734,
473,726,
469,718,
464,713,
460,709,
456,703,
453,694,
449,686,
443,680,
441,677,
438,673,
435,665,
432,658,
428,654,
426,654,
425,652,
423,648,
421,643,
419,642,
417,644,
418,645,
418,643,
418,639,
416,638,
415,642,
417,644,
417,643,
417,640,
417,640,
416,643,
418,646,
419,645,
420,642,
419,642,
417,644,
417,646,
418,644,
418,639,
416,636,
416,636,
415,636,
415,632,
414,626,
411,621,
409,620,
407,619,
405,614,
403,606,
399,598,
397,595,
394,592,
392,586,
390,578,
387,569,
383,564,
380,560,
377,554,
375,544,
371,536,
367,531,
362,528,
359,523,
356,515,
352,507,
348,503,
346,501,
344,498,
342,492,
338,486,
334,482,
333,481,
332,480,
330,475,
328,470,
325,466,
323,468,
322,468,
320,464,
319,460,
317,457,
316,459,
316,460,
315,458,
314,454,
313,452,
313,454,
313,455,
313,454,
313,450,
313,449,
312,451,
313,453,
314,452,
314,449,
313,447,
313,449,
314,452,
315,451,
315,449,
315,447,
314,449,
314,451,
316,450,
316,446,
315,444,
315,445,
316,449,
317,449,
318,445,
317,442,
316,443,
317,445,
317,445,
318,441,
316,438,
315,439,
315,441,
315,440,
314,437,
313,433,
311,432,
310,434,
309,433,
307,430,
306,425,
304,423,
302,425,
303,425,
302,421,
301,416,
298,415,
297,416,
296,416,
295,413,
293,409,
291,407,
289,410,
288,411,
288,409,
286,405,
283,403,
281,405,
280,406,
279,404,
277,400,
274,397,
273,399,
272,400,
272,399,
272,396,
270,393,
269,395,
269,398,
270,397,
272,393,
271,390,
271,391,
270,394,
271,393,
271,389,
270,387,
270,389,
269,392,
270,392,
270,388,
269,385,
268,386,
269,389,
269,388,
270,384,
270,381,
269,382,
268,383,
269,383,
268,379,
266,375,
264,374,
263,376,
263,375,
262,372,
261,368,
259,366,
258,370,
257,371,
256,369,
256,366,
254,366,
252,371,
252,375,
252,376,
253,378,
254,383,
257,393,
263,405,
269,415,
275,425,
283,439,
292,459,
304,481,
318,502,
332,521,
347,544,
364,572,
382,602,
401,628,
419,653,
438,679,
456,708,
475,738,
495,763,
514,785,
529,806,
544,829,
559,852,
574,870,
586,883,
598,893,
606,906,
615,918,
623,925,
629,927,
631,926,
633,927,
633,928,
634,924,
632,916,
629,907,
624,899,
619,893,
614,885,
608,874,
600,860,
592,850,
584,842,
578,831,
570,818,
563,805,
554,794,
547,788,
540,780,
534,770,
527,759,
519,751,
512,748,
506,743,
500,737,
494,729,
486,723,
480,722,
475,720,
471,714,
465,705,
460,699,
453,697,
449,693,
445,686,
441,676,
436,667,
429,663,
424,658,
421,650,
417,640,
412,630,
407,626,
404,623,
401,617,
399,610,
396,603,
393,600,
391,601,
391,600,
389,596,
389,594,
388,596,
388,599,
390,601,
391,599,
391,598,
392,601,
393,606,
395,608,
396,607,
397,606,
397,608,
397,612,
399,614,
400,611,
399,609,
399,607,
398,609,
398,611,
398,607,
397,602,
397,598,
396,597,
396,596,
396,590,
395,582,
392,576,
390,574,
389,572,
387,565,
384,556,
380,551,
376,546,
374,543,
370,536,
366,526,
362,518,
358,514,
355,510,
352,502,
348,492,
343,485,
338,481,
335,478,
333,471,
330,462,
327,454,
321,452,
319,449,
316,445,
312,437,
308,431,
305,430,
303,430,
301,427,
300,422,
296,417,
294,416,
292,417,
290,416,
289,411,
287,408,
285,408,
284,411,
284,411,
284,408,
284,405,
283,405,
283,408,
285,409,
287,406,
287,403,
286,402,
287,405,
288,407,
289,404,
290,401,
290,402,
290,405,
291,407,
292,406,
292,403,
292,401,
292,404,
292,407,
292,405,
292,402,
291,402,
290,405,
291,407,
292,407,
292,403,
291,402,
291,404,
291,406,
291,405,
291,401,
289,398,
287,400,
286,401,
286,400,
285,397,
283,393,
282,395,
280,397,
280,396,
279,393,
277,389,
275,390,
274,392,
274,392,
274,387,
273,383,
272,383,
271,385,
271,385,
270,381,
269,378,
268,377,
269,379,
269,379,
270,375,
271,371,
270,370,
270,373,
271,374,
271,371,
271,368,
270,367,
269,369,
270,371,
270,368,
268,364,
266,362,
265,364,
265,365,
264,362,
261,359,
258,358,
257,360,
257,362,
256,359,
255,357,
253,355,
251,357,
251,359,
250,359,
250,355,
248,354,
246,356,
246,360,
247,358,
247,355,
246,354,
244,357,
244,360,
244,360,
243,355,
242,353,
240,353,
239,355,
239,354,
238,349,
238,346,
237,346,
237,348,
236,348,
236,343,
235,341,
233,341,
232,345,
233,346,
234,344,
234,343,
234,347,
236,354,
240,360,
243,364,
247,370,
251,381,
257,397,
265,413,
275,428,
286,443,
297,464,
312,491,
328,516,
346,540,
363,564,
381,592,
400,624,
422,654,
442,682,
463,707,
481,734,
500,764,
519,792,
537,814,
553,834,
568,852,
581,873,
594,891,
607,903,
616,911,
624,918,
630,927,
635,935,
640,936,
642,932,
641,929,
639,929,
637,927,
634,920,
630,909,
624,899,
617,891,
611,884,
605,875,
598,862,
588,850,
579,841,
571,835,
564,826,
556,815,
548,805,
539,799,
532,794,
525,788,
519,780,
512,771,
506,767,
500,765,
497,763,
492,756,
487,750,
481,746,
477,746,
474,743,
471,737,
466,729,
461,724,
458,722,
454,717,
451,710,
446,699,
441,691,
435,686,
431,680,
429,671,
424,662,
419,653,
414,649,
412,644,
410,638,
407,629,
404,622,
401,620,
401,619,
400,616,
400,610,
398,607,
397,608,
397,611,
397,610,
397,606,
396,604,
395,606,
396,609,
397,608,
397,605,
395,604,
394,605,
395,608,
396,608,
396,604,
395,601,
394,599,
393,601,
393,600,
392,594,
391,590,
389,588,
387,588,
385,585,
383,580,
381,574,
378,570,
376,570,
373,566,
371,559,
368,552,
363,546,
361,544,
358,539,
356,531,
352,521,
347,514,
344,511,
341,508,
339,500,
335,492,
331,486,
328,483,
325,479,
322,472,
318,464,
315,458,
311,456,
309,454,
307,448,
305,440,
302,435,
299,433,
297,432,
296,427,
294,421,
291,416,
289,416,
288,417,
289,414,
288,409,
286,406,
284,406,
284,409,
285,407,
286,403,
285,401,
285,403,
286,406,
286,406,
286,402,
285,399,
284,400,
284,404,
285,405,
284,401,
284,399,
283,400,
282,404,
283,405,
284,403,
283,400,
281,401,
281,404,
283,406,
283,403,
282,400,
282,400,
282,403,
282,405,
283,402,
283,398,
283,397,
282,399,
283,400,
283,397,
282,393,
280,392,
279,394,
280,395,
281,391,
279,387,
278,385,
277,388,
277,390,
277,388,
277,385,
274,383,
272,383,
272,384,
271,382,
269,378,
268,375,
267,375,
267,377,
267,375,
266,371,
266,368,
265,369,
264,370,
265,369,
263,365,
262,362,
260,362,
260,365,
260,364,
260,361,
259,358,
257,358,
256,361,
256,360,
255,356,
253,354,
251,354,
251,357,
251,357,
251,354,
250,350,
248,350,
249,353,
250,356,
250,353,
250,350,
249,350,
248,353,
249,354,
250,351,
250,348,
248,347,
248,351,
248,353,
249,351,
248,347,
247,346,
247,348,
246,350,
247,349,
245,345,
243,344,
241,345,
240,347,
238,346,
237,342,
234,340,
233,342,
233,345,
232,343,
231,339,
229,338,
228,339,
229,342,
230,342,
230,339,
229,337,
229,340,
231,345,
234,349,
236,350,
237,354,
239,363,
243,375,
250,387,
256,397,
264,409,
272,427,
283,449,
297,471,
311,491,
326,512,
341,538,
359,568,
377,596,
395,622,
412,645,
429,672,
447,701,
465,726,
484,749,
501,769,
517,789,
531,811,
546,830,
559,843,
570,853,
578,863,
586,873,
594,882,
600,885,
604,884,
605,884,
607,884,
607,884,
607,878,
603,869,
600,861,
594,855,
589,848,
584,837,
578,825,
569,814,
560,806,
553,800,
546,790,
538,778,
529,768,
519,761,
512,757,
504,750,
496,740,
488,733,
480,729,
473,728,
467,724,
462,718,
455,713,
448,710,
444,709,
439,706,
435,699,
430,692,
424,688,
419,685,
416,680,
412,670,
407,660,
402,654,
398,650,
395,644,
392,635,
387,624,
381,616,
378,612,
375,608,
372,600,
370,592,
367,587,
364,587,
364,585,
364,580,
364,575,
363,573,
363,574,
365,575,
367,573,
368,569,
369,568,
368,571,
369,573,
371,572,
373,569,
372,569,
373,570,
374,572,
376,571,
376,567,
375,564,
374,565,
375,565,
375,564,
375,558,
374,554,
373,554,
373,554,
372,551,
372,544,
370,539,
368,537,
367,537,
365,535,
362,527,
358,521,
355,517,
352,516,
349,512,
346,506,
343,498,
337,494,
334,493,
332,490,
329,483,
324,476,
321,471,
317,469,
316,466,
313,459,
310,451,
305,447,
302,446,
299,444,
296,438,
293,432,
290,429,
287,428,
286,427,
285,422,
283,416,
282,412,
280,413,
279,412,
279,409,
278,403,
277,401,
276,402,
276,404,
277,402,
276,398,
275,395,
275,396,
276,398,
276,396,
276,393,
275,390,
274,392,
274,394,
274,394,
273,390,
272,387,
271,389,
272,393,
272,394,
272,392,
271,391,
270,394,
270,397,
272,397,
272,395,
273,393,
271,394,
272,397,
273,397,
273,394,
272,391,
270,391,
271,393,
272,393,
272,389,
272,386,
272,385,
272,387,
273,387,
274,384,
273,381,
272,379,
271,382,
271,383,
271,380,
270,376,
269,375,
268,377,
268,378,
268,376,
267,373,
266,372,
264,374,
264,376,
264,374,
263,370,
262,367,
260,369,
260,371,
260,369,
259,364,
257,363,
255,364,
254,366,
253,365,
252,362,
250,358,
248,360,
247,362,
248,361,
246,358,
245,356,
244,357,
243,360,
245,359,
245,354,
244,352,
244,353,
243,357,
244,357,
243,353,
243,351,
241,351,
241,355,
241,356,
242,353,
241,351,
238,352,
237,355,
237,356,
238,354,
237,352,
237,352,
237,356,
238,358,
239,357,
237,354,
237,354,
236,357,
235,359,
235,357,
233,355,
232,354,
231,356,
231,359,
232,356,
232,353,
230,352,
229,355,
230,356,
230,354,
229,350,
228,348,
227,349,
226,350,
227,349,
226,345,
225,343,
225,344,
225,345,
225,344,
225,340,
224,339,
223,342,
224,347,
226,348,
228,348,
228,350,
229,357,
234,367,
238,375,
244,382,
250,391,
256,406,
265,424,
276,441,
288,457,
300,475,
312,498,
328,524,
346,549,
362,570,
378,592,
394,617,
412,645,
430,671,
449,690,
464,709,
478,730,
493,752,
507,771,
520,784,
530,794,
538,804,
546,817,
553,826,
559,829,
563,828,
565,830,
566,833,
566,834,
566,829,
564,820,
560,813,
555,809,
550,803,
545,793,
538,781,
530,770,
522,763,
515,755,
508,745,
500,732,
492,721,
483,715,
476,710,
468,702,
461,692,
452,683,
446,679,
440,676,
435,670,
430,662,
425,655,
420,651,
416,650,
414,646,
410,639,
404,632,
400,628,
397,625,
394,621,
391,611,
386,602,
381,597,
377,595,
374,590,
371,582,
367,575,
362,570,
358,569,
356,567,
353,561,
350,557,
346,554,
344,555,
344,556,
342,553,
341,550,
339,550,
339,553,
340,555,
340,555,
339,552,
338,553,
338,557,
339,560,
339,560,
340,557,
339,557,
339,560,
340,562,
341,561,
341,557,
340,555,
340,557,
341,558,
342,556,
343,551,
342,548,
342,548,
342,548,
343,546,
343,539,
342,535,
341,534,
340,534,
340,530,
340,523,
339,517,
336,513,
336,512,
335,508,
334,500,
332,494,
328,489,
326,487,
324,483,
321,475,
317,469,
313,465,
310,463,
308,459,
305,452,
301,445,
296,441,
293,439,
290,437,
288,431,
284,424,
281,420,
279,420,
278,420,
276,415,
275,409,
274,407,
273,407,
272,407,
272,404,
270,400,
268,397,
267,399,
268,400,
268,399,
267,396,
265,393,
264,397,
263,399,
265,399,
266,396,
264,396,
262,398,
262,402,
262,402,
263,399,
262,399,
262,401,
263,404,
265,405,
264,402,
263,400,
262,402,
262,404,
262,404,
262,401,
262,398,
261,399,
263,401,
264,401,
266,398,
266,395,
266,396,
266,399,
266,399,
267,397,
268,395,
266,396,
267,398,
269,399,
270,396,
270,393,
269,393,
269,396,
268,396,
268,393,
268,390,
267,390,
266,392,
266,393,
266,390,
264,387,
263,385,
262,386,
262,388,
261,385,
260,381,
259,379,
257,381,
258,383,
259,381,
259,377,
258,374,
257,376,
257,379,
257,377,
256,373,
254,372,
252,374,
251,377,
251,376,
251,372,
249,370,
247,371,
248,374,
248,373,
250,369,
248,367,
247,369,
247,373,
247,372,
247,369,
246,366,
245,367,
244,370,
244,370,
243,367,
241,364,
240,365,
240,368,
239,368,
239,366,
239,363,
237,363,
237,366,
238,368,
238,365,
236,362,
234,361,
233,365,
232,366,
232,363,
231,361,
230,361,
229,365,
231,367,
231,365,
231,363,
230,363,
230,366,
230,369,
230,367,
229,364,
228,364,
226,367,
227,369,
228,368,
228,365,
226,364,
226,366,
227,368,
228,367,
228,363,
226,361,
225,363,
226,366,
227,364,
226,362,
225,360,
225,362,
224,366,
224,366,
224,363,
223,362,
222,365,
223,370,
224,373,
225,373,
227,376,
230,384,
235,395,
241,405,
248,415,
257,425,
266,441,
276,460,
290,478,
306,494,
319,511,
334,533,
351,558,
367,581,
384,602,
401,620,
418,642,
434,665,
451,687,
467,702,
481,716,
494,732,
506,749,
518,764,
528,772,
535,777,
541,782,
545,790,
549,794,
552,793,
553,788,
552,784,
551,783,
549,779,
546,771,
542,759,
535,749,
527,741,
520,734,
514,722,
505,709,
496,697,
487,689,
478,681,
470,671,
461,658,
451,647,
440,642,
431,637,
423,631,
415,621,
407,614,
398,608,
392,606,
386,602,
380,593,
374,587,
367,583,
363,583,
359,580,
354,573,
350,566,
344,563,
340,563,
336,560,
332,554,
327,549,
323,545,
320,546,
317,544,
316,539,
314,533,
312,531,
310,533,
311,534,
311,532,
312,529,
312,529,
314,534,
316,537,
318,536,
320,535,
320,535,
322,541,
323,544,
326,545,
328,543,
330,544,
332,549,
335,553,
339,553,
341,552,
342,551,
342,554,
345,556,
347,555,
349,552,
349,550,
350,550,
350,552,
350,550,
349,545,
347,541,
345,540,
344,540,
343,537,
342,531,
339,526,
336,523,
333,522,
331,518,
329,511,
325,505,
321,501,
319,500,
316,497,
313,489,
310,482,
306,479,
302,477,
300,473,
296,466,
292,458,
288,454,
285,453,
283,451,
282,446,
279,441,
277,438,
274,438,
273,437,
272,432,
269,427,
267,425,
265,427,
264,427,
264,424,
263,421,
261,419,
261,422,
262,424,
262,422,
262,419,
261,419,
261,421,
261,424,
262,423,
262,420,
261,419,
260,422,
260,425,
261,424,
262,422,
261,421,
261,423,
262,426,
263,425,
264,422,
262,419,
261,422,
261,425,
262,424,
261,421,
261,419,
260,419,
262,422,
263,422,
265,419,
265,417,
264,419,
265,421,
267,423,
269,420,
269,417,
269,418,
269,421,
271,422,
272,419,
272,416,
272,417,
271,418,
271,419,
272,417,
271,414,
270,414,
269,417,
269,417,
269,414,
268,410,
266,410,
264,413,
264,414,
264,412,
263,409,
262,407,
261,409,
260,411,
260,409,
260,405,
259,404,
258,406,
258,407,
258,406,
258,402,
258,400,
257,401,
257,402,
258,400,
257,397,
255,395,
255,397,
254,399,
254,398,
254,395,
253,391,
251,392,
252,394,
252,392,
251,389,
249,385,
247,385,
246,388,
245,386,
243,383,
242,380,
240,379,
239,382,
237,381,
237,377,
233,376,
231,375,
229,379,
230,380,
230,377,
228,375,
228,377,
228,381,
229,384,
231,384,
233,384,
233,389,
236,398,
242,407,
247,413,
253,420,
259,431,
268,446,
279,462,
290,476,
302,488,
314,505,
327,525,
341,546,
356,564,
370,580,
383,598,
397,619,
412,639,
427,655,
439,669,
451,682,
463,698,
473,714,
483,725,
491,732,
498,738,
503,747,
507,754,
511,757,
514,755,
514,752,
512,752,
511,752,
509,747,
506,738,
502,730,
496,723,
491,719,
485,711,
479,700,
470,689,
461,680,
453,675,
445,667,
438,656,
430,644,
421,636,
413,630,
406,623,
400,614,
393,603,
384,595,
378,592,
373,586,
368,578,
361,569,
354,562,
349,559,
345,555,
340,547,
335,538,
330,532,
326,529,
322,526,
318,520,
314,512,
310,507,
306,507,
304,506,
302,503,
301,499,
298,497,
297,499,
298,501,
300,501,
300,497,
301,497,
301,501,
303,505,
307,507,
308,507,
309,509,
311,514,
314,521,
316,524,
319,525,
321,526,
322,531,
324,537,
326,540,
329,540,
330,539,
331,543,
333,547,
335,549,
337,547,
337,545,
337,545,
337,548,
338,549,
338,545,
337,541,
335,539,
335,539,
335,537,
334,531,
332,524,
330,519,
328,518,
327,515,
326,509,
324,501,
320,495,
317,494,
315,491,
312,485,
309,476,
305,471,
301,469,
299,468,
297,462,
294,454,
290,449,
287,448,
286,446,
284,442,
282,435,
279,431,
276,430,
275,430,
273,428,
271,423,
268,420,
265,420,
264,422,
263,420,
262,417,
259,415,
257,416,
257,418,
257,419,
256,416,
255,414,
255,416,
256,420,
258,421,
258,418,
259,416,
259,417,
260,421,
261,423,
263,420,
263,419,
264,419,
264,423,
266,425,
267,422,
267,420,
267,421,
266,425,
265,425,
265,423,
264,421,
263,420,
262,424,
262,425,
261,424,
260,421,
259,420,
259,423,
260,425,
260,423,
260,421,
259,420,
259,423,
259,425,
260,422,
260,419,
259,417,
260,418,
260,419,
261,418,
261,414,
260,412,
260,414,
261,416,
262,415,
262,411,
261,410,
262,411,
262,414,
263,414,
263,409,
263,406,
262,409,
262,411,
263,411,
263,407,
262,405,
260,406,
260,409,
260,408,
260,405,
258,402,
257,402,
256,405,
256,406,
256,402,
255,399,
254,399,
253,403,
253,403,
253,401,
252,398,
251,398,
251,400,
252,402,
252,399,
251,396,
250,396,
249,399,
250,401,
250,399,
249,396,
248,396,
247,400,
247,401,
248,399,
247,396,
246,396,
245,399,
247,401,
249,399,
249,396,
249,395,
248,397,
250,399,
251,398,
251,395,
250,393,
249,396,
249,398,
248,397,
249,394,
247,392,
245,394,
244,398,
242,395,
241,391,
238,389,
237,389,
235,392,
236,391,
235,388,
233,386,
232,389,
232,395,
233,398,
234,399,
236,402,
238,410,
242,420,
248,431,
255,440,
264,451,
273,465,
286,485,
300,503,
314,520,
330,537,
346,557,
363,582,
381,605,
399,624,
416,643,
434,664,
451,688,
470,709,
486,726,
500,739,
512,755,
525,772,
536,787,
545,796,
553,801,
559,807,
563,815,
567,822,
569,823,
570,819,
569,817,
566,817,
564,815,
562,810,
557,800,
550,791,
545,786,
538,780,
531,771,
523,758,
514,748,
506,740,
498,735,
491,725,
484,713,
474,704,
465,698,
456,694,
450,689,
442,680,
434,673,
426,670,
420,669,
415,666,
410,660,
404,654,
398,651,
393,651,
391,649,
387,642,
382,636,
377,633,
373,632,
370,630,
367,623,
363,615,
359,610,
356,609,
354,605,
351,599,
347,590,
342,586,
340,586,
339,585,
339,580,
339,575,
338,573,
337,575,
339,575,
341,574,
342,570,
343,570,
342,573,
344,576,
346,576,
348,574,
349,574,
350,577,
353,581,
355,582,
357,579,
359,579,
361,581,
363,585,
365,584,
366,582,
365,580,
365,581,
365,583,
366,582,
365,577,
364,574,
362,573,
361,574,
361,572,
360,567,
359,561,
357,559,
356,559,
355,556,
353,548,
350,541,
346,538,
341,537,
339,533,
337,527,
334,520,
329,515,
325,514,
322,511,
318,505,
314,498,
309,494,
306,494,
304,491,
301,485,
298,478,
294,475,
292,474,
290,473,
289,468,
288,462,
285,458,
283,459,
282,459,
282,456,
280,452,
279,449,
278,449,
278,451,
278,448,
278,444,
276,442,
274,443,
275,446,
276,445,
276,441,
277,439,
278,441,
278,444,
280,444,
280,441,
280,439,
279,441,
280,444,
281,444,
281,442,
281,440,
280,441,
280,445,
282,447,
282,444,
281,441,
281,442,
282,446,
283,447,
284,445,
284,443,
283,442,
282,446,
283,447,
282,444,
279,440,
278,440,
277,443,
277,444,
277,441,
276,436,
276,436,
275,438,
276,439,
277,437,
276,433,
275,432,
276,433,
277,434,
278,432,
278,428,
278,426,
276,428,
277,429,
277,427,
276,422,
273,421,
272,423,
271,424,
270,423,
270,418,
268,416,
265,418,
265,419,
265,418,
266,414,
265,413,
264,414,
264,416,
264,416,
265,411,
264,409,
263,410,
263,413,
264,411,
264,407,
263,405,
262,406,
262,409,
262,409,
261,406,
259,403,
258,404,
256,407,
255,408,
255,404,
254,401,
252,401,
251,404,
253,404,
253,402,
254,399,
252,399,
252,402,
253,404,
255,403,
255,400,
254,400,
254,403,
254,406,
255,404,
254,402,
253,402,
251,405,
252,406,
252,405,
251,401,
250,400,
249,402,
249,404,
249,401,
249,397,
247,396,
246,397,
246,399,
245,398,
245,394,
244,392,
243,395,
242,397,
243,396,
242,393,
241,391,
239,394,
240,398,
241,399,
241,398,
241,399,
242,405,
245,413,
248,419,
252,425,
256,432,
262,444,
271,460,
281,476,
293,489,
305,504,
318,523,
333,547,
349,569,
365,589,
381,609,
397,632,
415,657,
435,681,
453,700,
470,718,
485,737,
501,759,
517,778,
533,792,
545,803,
555,816,
564,830,
572,840,
579,845,
583,847,
586,849,
587,853,
588,855,
589,852,
585,845,
582,838,
576,834,
571,830,
567,821,
560,811,
553,800,
544,794,
538,787,
531,778,
522,766,
514,756,
506,750,
498,745,
491,737,
483,727,
475,720,
468,716,
462,715,
458,711,
453,706,
448,701,
442,699,
438,700,
435,698,
432,694,
429,690,
425,688,
423,689,
421,687,
419,682,
416,676,
411,673,
408,672,
406,668,
403,660,
400,653,
396,648,
391,646,
388,643,
385,636,
381,630,
377,626,
374,626,
373,625,
373,620,
372,615,
370,612,
369,614,
368,615,
369,613,
368,610,
368,609,
367,612,
368,615,
369,614,
369,610,
368,609,
368,612,
368,614,
370,613,
370,609,
370,608,
370,609,
370,611,
371,609,
372,604,
372,600,
370,600,
371,601,
372,599,
372,593,
371,588,
370,587,
369,586,
369,583,
368,576,
367,569,
364,565,
363,563,
362,558,
361,550,
358,544,
356,540,
354,538,
352,535,
351,528,
348,521,
343,517,
341,516,
338,512,
335,506,
331,499,
327,497,
324,496,
322,495,
320,489,
317,483,
313,480,
311,479,
309,478,
308,475,
305,470,
303,467,
301,468,
299,468,
298,465,
296,460,
294,457,
292,459,
291,459,
290,457,
289,453,
287,451,
286,453,
287,455,
287,454,
286,450,
284,449,
283,450,
283,453,
284,452,
284,448,
283,446,
282,447,
283,451,
284,451,
285,448,
285,447,
286,449,
286,451,
288,452,
290,449,
289,448,
290,449,
292,452,
293,453,
294,450,
294,447,
294,448,
294,450,
294,450,
296,447,
295,445,
293,445,
293,447,
294,448,
293,444,
293,440,
292,438,
292,441,
293,441,
294,439,
293,435,
292,435,
292,437,
292,438,
293,435,
292,432,
289,430,
289,432,
288,433,
287,430,
285,426,
283,424,
280,426,
280,427,
280,426,
278,422,
275,420,
273,421,
272,423,
272,421,
270,417,
269,414,
267,415,
267,416,
267,415,
268,412,
266,409,
266,411,
267,414,
269,413,
270,410,
269,407,
268,408,
267,410,
267,410,
267,406,
267,403,
265,404,
265,406,
265,408,
266,406,
266,402,
263,403,
264,404,
264,405,
264,402,
263,399,
262,398,
262,402,
263,403,
262,400,
263,398,
262,398,
261,402,
260,404,
261,401,
260,398,
259,397,
259,400,
259,401,
259,399,
258,395,
256,393,
255,395,
254,396,
254,393,
253,389,
252,387,
250,389,
251,390,
250,390,
249,385,
247,384,
246,387,
246,389,
246,390,
248,388,
249,390,
250,396,
252,405,
256,411,
261,416,
266,424,
271,438,
279,454,
289,470,
300,485,
313,501,
325,522,
340,545,
357,568,
373,586,
389,607,
405,631,
422,657,
438,679,
456,698,
471,716,
487,734,
502,756,
515,774,
528,786,
539,797,
547,807,
554,819,
561,827,
566,830,
569,830,
571,831,
571,832,
571,831,
571,825,
568,816,
564,809,
558,804,
555,797,
548,787,
541,773,
533,763,
524,755,
518,747,
511,736,
501,723,
493,712,
484,705,
476,699,
469,690,
463,679,
456,670,
449,667,
444,663,
440,658,
435,649,
429,643,
423,641,
419,639,
415,636,
412,628,
408,623,
404,620,
400,618,
398,613,
395,605,
390,597,
386,592,
382,590,
380,585,
376,577,
373,569,
369,566,
365,565,
363,563,
361,558,
358,553,
355,552,
354,554,
354,554,
354,551,
352,548,
352,549,
352,553,
354,556,
356,555,
357,553,
357,554,
359,559,
361,563,
363,563,
365,561,
365,562,
365,566,
368,569,
369,570,
370,567,
370,567,
369,570,
370,572,
370,571,
370,566,
369,564,
368,566,
368,568,
369,565,
368,559,
367,553,
365,552,
363,552,
363,548,
362,541,
359,534,
356,532,
355,530,
353,525,
352,517,
348,510,
345,506,
344,504,
342,499,
340,492,
337,485,
334,481,
331,480,
329,477,
327,470,
323,464,
319,461,
317,461,
315,459,
313,454,
309,449,
306,448,
304,448,
303,448,
301,443,
301,438,
297,436,
297,438,
296,439,
295,436,
292,432,
289,431,
287,433,
286,435,
284,431,
283,428,
281,426,
281,429,
280,430,
281,428,
281,424,
281,423,
281,426,
283,428,
284,427,
285,424,
285,422,
285,425,
286,427,
288,427,
288,424,
288,423,
288,425,
288,428,
289,427,
289,424,
288,422,
288,424,
289,426,
290,425,
291,422,
291,420,
291,421,
291,424,
292,425,
293,421,
292,419,
292,419,
291,422,
292,421,
293,418,
292,415,
292,415,
291,418,
292,418,
292,415,
291,411,
289,410,
288,413,
287,414,
286,412,
284,410,
281,410,
279,413,
280,414,
279,411,
278,408,
276,406,
274,409,
274,410,
274,408,
274,405,
273,403,
272,406,
272,406,
272,403,
271,400,
270,398,
268,401,
267,402,
267,400,
267,396,
265,394,
264,395,
264,398,
264,397,
264,392,
262,391,
261,392,
261,395,
262,394,
261,390,
261,388,
259,389,
258,391,
257,392,
257,387,
256,386,
255,386,
255,390,
255,390,
256,387,
256,385,
256,386,
255,388,
256,390,
257,387,
257,384,
256,386,
256,389,
257,391,
257,389,
257,387,
256,388,
256,392,
257,393,
258,392,
257,389,
256,390,
255,394,
256,396,
257,395,
256,392,
256,392,
256,395,
257,396,
257,394,
257,390,
256,389,
256,391,
257,392,
257,391,
256,386,
255,385,
254,387,
253,388,
252,387,
251,383,
250,382,
249,383,
248,385,
247,384,
247,380,
246,379,
245,382,
245,386,
247,388,
248,387,
248,391,
251,398,
255,409,
262,418,
269,427,
277,438,
286,455,
298,474,
311,493,
325,510,
341,527,
355,550,
372,576,
391,600,
410,620,
429,640,
447,663,
466,687,
485,710,
503,728,
520,744,
536,761,
550,780,
564,795,
576,805,
586,812,
594,819,
601,828,
607,834,
611,833,
613,832,
613,829,
611,828,
610,826,
607,819,
604,809,
598,800,
592,794,
587,787,
582,776,
575,764,
568,753,
560,745,
554,738,
547,728,
540,715,
532,704,
524,698,
517,694,
511,687,
505,679,
499,672,
491,670,
486,669,
480,665,
475,659,
468,654,
462,654,
458,655,
454,655,
451,650,
447,646,
442,644,
439,644,
436,641,
432,635,
428,628,
423,624,
419,623,
416,619,
411,612,
407,605,
402,601,
398,600,
395,598,
392,591,
389,585,
386,582,
385,583,
385,583,
386,578,
385,575,
385,574,
386,576,
387,578,
389,576,
391,574,
391,574,
392,577,
394,580,
396,580,
399,578,
399,578,
400,581,
402,584,
404,584,
405,581,
404,579,
403,581,
403,583,
403,581,
401,575,
399,572,
397,573,
395,573,
394,570,
392,564,
389,559,
384,557,
382,557,
380,552,
379,546,
375,540,
372,537,
369,535,
367,532,
364,525,
362,519,
358,515,
356,514,
354,511,
353,504,
349,497,
344,493,
340,492,
338,489,
335,483,
331,477,
328,472,
325,471,
325,469,
323,463,
320,457,
318,454,
315,454,
314,454,
311,449,
309,443,
306,440,
305,441,
305,440,
305,437,
303,432,
301,431,
300,433,
300,434,
300,432,
299,429,
298,426,
296,430,
296,432,
296,432,
298,429,
297,428,
297,430,
298,433,
298,433,
297,430,
296,429,
295,431,
295,434,
295,435,
295,432,
295,430,
294,433,
295,436,
295,436,
296,433,
295,430,
294,432,
295,435,
296,435,
297,432,
297,429,
298,430,
298,433,
300,434,
302,431,
302,428,
302,428,
302,431,
303,432,
303,428,
302,425,
300,424,
299,427,
299,428,
299,424,
298,420,
297,420,
296,422,
296,422,
295,419,
294,416,
292,414,
290,416,
289,416,
288,414,
286,409,
284,407,
282,409,
280,410,
279,408,
278,404,
276,402,
275,404,
274,406,
274,403,
272,399,
269,397,
268,398,
268,400,
267,399,
267,395,
264,394,
263,396,
262,400,
262,400,
262,396,
261,394,
260,396,
260,399,
260,398,
261,396,
259,393,
258,394,
259,397,
259,397,
259,394,
259,392,
257,392,
258,395,
258,396,
258,394,
258,392,
258,392,
257,395,
258,397,
258,395,
259,392,
259,392,
258,394,
259,396,
259,394,
259,391,
259,390,
258,395,
258,397,
259,396,
258,393,
258,393,
258,396,
258,398,
259,397,
261,394,
259,392,
259,395,
259,398,
258,396,
258,391,
254,390,
254,393,
253,394,
253,392,
253,388,
250,386,
249,387,
250,389,
249,388,
248,384,
247,382,
245,384,
244,386,
244,386,
244,385,
243,385,
242,390,
244,397,
247,402,
251,406,
255,412,
260,422,
268,436,
278,449,
289,460,
301,472,
313,490,
328,513,
346,533,
364,550,
382,567,
399,589,
417,614,
436,637,
455,656,
473,673,
489,692,
506,714,
523,733,
538,746,
552,758,
565,770,
576,784,
587,794,
597,799,
603,800,
610,802,
614,806,
618,808,
619,805,
619,799,
616,793,
612,790,
609,786,
606,778,
602,768,
596,759,
589,752,
584,747,
579,737,
571,725,
564,715,
557,709,
550,704,
544,697,
537,687,
529,679,
523,675,
516,673,
511,669,
505,662,
500,657,
493,654,
489,655,
485,654,
482,649,
478,644,
473,643,
469,645,
467,642,
464,637,
460,632,
454,629,
450,629,
446,626,
443,618,
438,611,
432,606,
428,605,
424,602,
421,595,
417,588,
412,583,
408,583,
404,581,
402,576,
399,573,
397,571,
395,574,
394,575,
394,574,
393,571,
392,570,
391,573,
392,575,
393,575,
394,572,
394,571,
394,574,
396,576,
398,576,
399,573,
400,572,
399,574,
400,576,
400,574,
400,570,
400,567,
399,567,
399,569,
400,567,
399,561,
397,557,
396,556,
394,555,
394,553,
393,547,
390,541,
386,539,
384,538,
383,535,
380,528,
377,522,
372,519,
370,518,
367,514,
366,508,
362,500,
357,497,
354,496,
351,492,
348,485,
343,479,
338,476,
335,476,
333,474,
331,469,
327,464,
324,460,
321,460,
319,460,
316,455,
314,449,
310,447,
308,448,
308,448,
307,446,
305,441,
304,440,
302,441,
302,443,
303,441,
303,438,
303,436,
303,438,
304,441,
305,440,
304,437,
304,435,
304,438,
304,440,
305,440,
304,436,
304,435,
303,437,
303,439,
304,439,
304,436,
304,434,
303,436,
304,439,
304,439,
303,436,
302,435,
300,436,
300,440,
301,441,
300,438,
299,436,
298,436,
297,439,
297,439,
297,436,
296,433,
294,434,
294,437,
294,437,
294,434,
293,430,
292,429,
291,432,
292,432,
292,429,
291,425,
290,423,
290,425,
291,427,
291,423,
291,420,
289,417,
288,419,
288,420,
287,418,
285,414,
283,412,
281,413,
280,414,
279,412,
279,407,
276,406,
274,408,
274,410,
272,409,
272,405,
270,403,
269,404,
269,407,
269,405,
268,401,
267,400,
265,401,
264,403,
264,403,
265,399,
264,397,
263,399,
262,401,
263,402,
263,399,
262,397,
261,398,
262,401,
262,402,
262,398,
262,396,
259,397,
259,400,
259,401,
259,398,
259,395,
258,396,
258,397,
260,399,
261,397,
260,395,
259,394,
260,397,
261,398,
262,396,
260,393,
259,392,
259,396,
258,397,
259,395,
259,391,
258,391,
258,394,
259,397,
259,395,
259,392,
259,392,
259,394,
259,397,
260,396,
260,392,
259,392,
259,396,
259,398,
260,398,
260,395,
258,392,
257,395,
257,398,
257,397,
257,393,
255,392,
253,393,
252,397,
253,396,
252,393,
250,390,
249,392,
248,393,
248,393,
247,390,
246,387,
244,389,
243,391,
244,391,
244,389,
242,387,
242,388,
242,393,
243,396,
244,398,
246,400,
247,407,
251,417,
257,428,
264,436,
271,446,
280,460,
291,479,
305,496,
319,513,
335,528,
351,549,
368,572,
386,594,
406,613,
425,632,
443,650,
461,673,
480,694,
498,710,
516,723,
530,738,
545,753,
560,767,
572,776,
582,781,
590,786,
597,793,
603,798,
609,799,
613,795,
613,792,
612,791,
612,789,
611,783,
609,774,
604,765,
599,759,
593,753,
588,745,
581,733,
574,722,
566,715,
559,710,
552,703,
546,693,
538,684,
530,678,
524,676,
517,670,
511,663,
504,657,
497,655,
491,655,
486,654,
481,650,
476,645,
471,644,
465,645,
461,645,
457,642,
453,638,
447,637,
442,637,
439,637,
437,631,
432,625,
428,620,
423,620,
420,619,
418,612,
414,605,
410,601,
407,600,
404,597,
403,593,
400,587,
397,583,
395,583,
393,583,
394,581,
393,577,
391,574,
390,576,
390,579,
390,577,
391,574,
390,573,
389,575,
390,578,
391,578,
392,575,
392,573,
392,575,
393,577,
395,577,
395,574,
394,571,
394,572,
395,574,
395,573,
396,569,
396,565,
393,563,
392,565,
392,563,
391,558,
389,552,
386,550,
385,551,
383,549,
381,544,
378,538,
375,535,
373,535,
371,532,
369,527,
366,521,
362,516,
357,516,
355,513,
352,507,
349,500,
344,495,
341,494,
339,492,
336,487,
332,480,
328,476,
324,476,
321,475,
318,470,
316,465,
313,461,
311,461,
310,461,
309,458,
308,453,
305,450,
303,451,
303,452,
302,450,
301,447,
299,445,
297,446,
297,449,
297,449,
296,446,
296,444,
295,446,
294,449,
294,449,
294,446,
294,443,
292,445,
294,449,
295,449,
296,447,
296,444,
296,445,
296,448,
296,449,
297,446,
297,443,
295,443,
295,446,
296,447,
295,444,
295,441,
294,442,
293,444,
294,446,
295,444,
294,440,
294,441,
293,443,
293,445,
293,442,
294,439,
293,438,
292,441,
293,443,
293,441,
294,438,
291,436,
291,438,
291,439,
291,437,
291,433,
289,432,
288,434,
288,436,
287,434,
287,430,
285,427,
284,429,
284,431,
284,429,
284,425,
282,422,
280,423,
279,425,
278,424,
278,419,
277,416,
276,416,
275,418,
275,417,
274,414,
271,411,
269,412,
269,415,
269,415,
269,411,
267,408,
266,409,
265,411,
264,411,
264,409,
263,406,
261,406,
261,409,
261,411,
261,408,
260,405,
258,404,
257,407,
258,408,
258,406,
255,403,
253,402,
251,405,
250,406,
251,404,
250,401,
249,400,
249,403,
249,404,
251,403,
251,400,
250,399,
250,402,
250,405,
252,403,
252,400,
251,398,
251,401,
251,403,
252,403,
251,400,
250,399,
250,402,
251,406,
251,405,
251,402,
250,401,
250,404,
250,407,
251,407,
252,405,
252,403,
251,405,
252,408,
253,408,
253,404,
253,403,
251,404,
252,407,
251,408,
251,404,
250,402,
248,402,
247,404,
246,404,
246,402,
244,398,
241,398,
240,400,
239,401,
237,397,
236,395,
234,394,
233,397,
233,397,
233,395,
233,393,
232,393,
231,398,
232,401,
234,401,
235,403,
236,407,
239,417,
245,427,
252,435,
259,442,
268,454,
278,471,
291,488,
306,504,
320,519,
335,536,
352,558,
371,580,
390,600,
410,616,
428,634,
446,655,
464,676,
481,692,
496,705,
511,719,
524,735,
536,751,
548,762,
559,768,
567,773,
574,780,
580,786,
585,789,
588,787,
590,784,
590,783,
590,782,
590,778,
588,770,
584,760,
578,753,
573,749,
567,741,
561,730,
555,719,
547,711,
539,705,
532,699,
524,689,
515,678,
506,671,
498,669,
491,663,
485,656,
477,648,
470,643,
462,642,
456,640,
451,637,
445,632,
439,629,
433,629,
429,629,
425,625,
421,620,
416,616,
411,615,
409,615,
406,611,
402,604,
398,599,
392,597,
388,596,
384,591,
380,583,
375,579,
370,578,
367,577,
365,573,
364,568,
361,564,
359,565,
359,567,
360,567,
360,564,
360,562,
359,563,
359,567,
360,568,
361,565,
362,564,
362,565,
363,569,
364,571,
366,569,
366,567,
366,567,
367,571,
369,572,
369,570,
369,567,
367,567,
367,569,
368,569,
368,566,
366,560,
363,558,
361,559,
361,557,
360,553,
359,548,
357,544,
356,544,
354,543,
353,539,
350,533,
347,529,
345,529,
343,527,
341,522,
339,515,
335,510,
333,510,
331,508,
330,504,
328,497,
325,492,
322,491,
321,489,
319,485,
318,479,
316,474,
313,473,
311,474,
309,471,
307,466,
303,461,
301,461,
299,462,
299,459,
296,453,
294,450,
291,450,
291,451,
289,450,
288,447,
285,443,
282,444,
281,446,
282,446,
282,443,
280,440,
278,441,
276,444,
276,446,
276,443,
275,440,
273,441,
273,443,
273,445,
273,444,
272,441,
271,441,
271,445,
272,446,
273,445,
272,442,
272,442,
272,446,
273,448,
274,446,
274,443,
273,442,
273,444,
275,446,
277,445,
278,441,
277,440,
277,442,
279,444,
281,442,
281,439,
280,437,
279,439,
281,441,
281,440,
281,438,
280,436,
279,438,
278,440,
278,439,
278,436,
277,433,
276,433,
276,435,
276,434,
276,430,
273,427,
272,427,
272,429,
272,429,
271,425,
269,421,
268,422,
268,424,
269,424,
268,420,
267,416,
265,415,
266,418,
266,419,
264,415,
263,412,
260,412,
259,415,
259,416,
257,413,
256,410,
253,410,
251,412,
250,414,
249,411,
248,409,
246,407,
245,409,
245,410,
245,409,
245,405,
244,404,
245,406,
244,408,
245,407,
244,403,
243,403,
242,405,
241,406,
242,406,
242,404,
240,402,
239,405,
239,408,
239,406,
238,402,
237,401,
235,402,
236,405,
237,404,
237,401,
235,399,
234,400,
235,404,
236,405,
238,402,
237,401,
238,402,
239,406,
240,407,
241,405,
241,402,
240,404,
240,408,
242,409,
243,407,
242,404,
242,405,
243,408,
244,409,
245,406,
244,403,
244,403,
243,406,
245,406,
246,403,
245,401,
244,400,
244,403,
244,404,
245,401,
244,397,
243,396,
241,398,
241,400,
240,398,
239,395,
237,395,
237,400,
239,404,
240,406,
242,408,
244,412,
247,422,
251,433,
258,442,
265,450,
273,462,
282,478,
294,496,
308,512,
322,528,
336,545,
351,567,
368,590,
386,610,
405,627,
422,645,
439,666,
457,688,
475,705,
492,719,
507,733,
521,748,
535,765,
548,777,
559,783,
566,788,
572,795,
579,803,
584,806,
587,805,
588,803,
587,802,
587,802,
586,800,
584,794,
580,785,
575,778,
570,775,
564,770,
559,760,
551,749,
542,741,
534,736,
526,730,
520,721,
511,711,
503,704,
495,701,
487,698,
480,691,
472,684,
463,679,
455,678,
449,678,
443,673,
436,668,
430,664,
425,665,
420,665,
416,661,
413,656,
409,651,
405,651,
402,651,
399,647,
396,640,
393,634,
389,631,
386,629,
383,625,
381,617,
377,611,
374,608,
371,606,
368,602,
366,595,
363,588,
359,586,
358,588,
357,587,
356,583,
356,579,
355,579,
354,582,
356,582,
357,580,
356,578,
356,578,
358,581,
358,584,
360,582,
361,579,
360,579,
360,583,
362,585,
363,583,
362,580,
360,581,
360,583,
361,584,
360,581,
360,577,
358,574,
357,575,
357,575,
356,572,
356,567,
352,564,
351,563,
350,562,
349,559,
347,553,
344,547,
343,545,
343,543,
342,539,
340,532,
337,526,
334,524,
332,523,
330,519,
328,513,
325,507,
321,506,
318,505,
316,503,
314,496,
311,491,
306,489,
304,489,
302,486,
301,480,
297,475,
294,473,
292,474,
291,472,
290,467,
288,463,
287,462,
285,463,
285,463,
284,459,
282,455,
280,455,
278,457,
279,458,
278,456,
278,452,
276,451,
275,455,
275,456,
276,453,
276,451,
274,450,
274,454,
275,455,
274,453,
273,450,
273,449,
273,452,
274,454,
275,453,
275,450,
274,449,
273,451,
272,454,
273,453,
273,449,
273,447,
272,448,
273,450,
274,448,
273,446,
273,444,
272,446,
272,448,
274,447,
274,443,
274,440,
273,441,
273,443,
273,442,
272,438,
271,436,
268,435,
268,438,
267,437,
267,434,
266,431,
265,432,
266,434,
267,433,
266,430,
265,426,
263,426,
262,428,
263,429,
262,425,
261,422,
261,422,
260,425,
262,426,
262,424,
262,421,
261,421,
261,424,
261,425,
261,423,
261,419,
260,418,
259,421,
259,422,
259,420,
258,417,
256,416,
255,417,
255,419,
255,417,
254,413,
252,411,
250,414,
250,416,
250,416,
250,412,
249,411,
247,413,
247,415,
247,414,
248,410,
247,407,
246,410,
247,412,
248,411,
249,408,
248,405,
248,407,
248,410,
247,409,
247,406,
246,403,
245,403,
245,406,
245,405,
245,401,
244,398,
243,398,
242,401,
243,401,
242,398,
241,395,
240,395,
238,398,
239,400,
239,398,
238,397,
238,398,
238,405,
240,411,
242,415,
246,419,
250,427,
256,440,
264,454,
273,465,
283,477,
292,493,
303,514,
317,534,
332,553,
347,570,
363,590,
378,613,
396,636,
413,656,
429,672,
444,689,
459,711,
475,730,
489,745,
502,757,
513,768,
522,782,
531,796,
540,804,
547,807,
552,810,
555,815,
558,820,
560,820,
561,816,
559,812,
556,809,
553,807,
551,801,
546,791,
541,782,
534,775,
527,771,
521,764,
514,753,
507,743,
498,736,
491,731,
485,725,
479,716,
473,708,
465,702,
459,700,
454,697,
449,691,
443,685,
437,681,
432,681,
428,679,
424,674,
420,668,
415,664,
411,664,
407,662,
402,657,
398,650,
390,645,
385,642,
380,639,
376,632,
372,623,
366,617,
361,613,
359,611,
357,605,
354,597,
351,592,
349,591,
348,590,
348,587,
348,582,
347,579,
346,581,
346,582,
347,581,
348,578,
348,576,
348,578,
349,581,
351,582,
352,580,
353,578,
353,580,
355,584,
356,585,
358,583,
358,580,
357,581,
357,585,
358,585,
358,581,
357,578,
355,578,
355,580,
354,580,
352,575,
350,571,
347,568,
345,570,
346,571,
346,568,
345,563,
344,561,
343,562,
342,561,
342,556,
340,550,
337,547,
335,547,
333,545,
331,540,
328,534,
325,528,
321,527,
319,524,
316,518,
313,510,
309,505,
305,503,
304,500,
