PPG A0,PPG A1,event_code
309,447,
316,452,
324,452,
320,454,
306,454,
307,454,
317,457,
324,457,
322,457,
307,456,
306,458,
317,460,
325,465,
327,464,
313,464,
308,467,
323,472,
333,478,
335,484,
323,487,
318,494,
331,503,
345,511,
348,518,
339,526,
333,533,
347,542,
357,553,
367,560,
358,569,
356,576,
365,584,
376,593,
384,600,
377,605,
367,612,
377,618,
390,622,
395,626,
387,630,
375,631,
384,636,
391,637,
395,638,
386,642,
371,640,
375,642,
384,644,
388,644,
381,641,
363,639,
365,637,
374,638,
377,636,
374,634,
357,629,
355,628,
362,626,
369,624,
366,622,
349,616,
350,612,
356,611,
363,609,
361,601,
344,596,
337,592,
348,590,
355,587,
352,584,
337,578,
332,572,
340,568,
345,564,
345,558,
327,552,
322,547,
329,542,
332,539,
334,537,
319,528,
308,523,
317,520,
324,518,
327,515,
313,509,
302,505,
308,503,
317,498,
323,496,
310,494,
298,491,
304,491,
315,489,
319,487,
312,487,
298,484,
305,485,
314,485,
323,484,
319,484,
304,481,
310,482,
321,483,
325,482,
322,482,
308,479,
309,481,
316,482,
327,482,
325,481,
307,480,
308,481,
316,482,
325,484,
325,481,
311,480,
307,478,
317,478,
326,479,
326,477,
312,477,
308,475,
316,477,
323,475,
327,475,
312,474,
304,472,
314,473,
321,473,
328,474,
313,472,
305,469,
312,470,
322,472,
325,470,
313,467,
300,466,
309,468,
320,468,
324,465,
314,464,
299,463,
307,463,
314,462,
319,459,
312,458,
300,457,
304,456,
315,459,
320,458,
315,457,
299,456,
305,456,
313,457,
320,458,
316,456,
304,458,
305,460,
315,464,
323,466,
324,472,
307,472,
311,479,
322,486,
334,495,
336,502,
326,509,
327,516,
343,527,
355,536,
362,544,
351,555,
350,562,
362,574,
374,583,
379,593,
368,598,
365,607,
378,615,
388,622,
393,628,
383,633,
375,636,
384,643,
393,648,
402,650,
389,649,
379,651,
387,653,
395,654,
401,655,
386,654,
373,652,
380,650,
388,650,
387,650,
379,648,
364,644,
367,643,
377,638,
379,637,
370,633,
355,629,
356,627,
364,623,
367,620,
359,615,
344,610,
346,606,
354,604,
358,600,
354,596,
335,590,
332,584,
338,580,
345,576,
341,570,
321,561,
319,557,
326,556,
331,551,
331,546,
312,545,
306,539,
314,540,
317,537,
318,536,
303,533,
297,538,
306,539,
312,545,
316,552,
301,566,
296,615,
303,690,
313,876,
317,992,
304,992,
298,992,
302,993,
314,992,
318,992,
310,992,
297,992,
306,992,
317,992,
320,993,
315,993,
303,992,
311,993,
321,992,
327,993,
321,993,
307,993,
313,993,
324,994,
330,992,
323,994,
312,992,
314,993,
324,993,
331,992,
327,992,
314,993,
313,992,
324,993,
330,993,
327,993,
314,993,
311,992,
320,993,
327,993,
328,993,
312,993,
306,993,
318,992,
326,993,
327,992,
312,992,
303,992,
312,992,
318,992,
321,993,
308,993,
298,992,
307,992,
315,993,
319,992,
307,992,
298,993,
304,993,
315,993,
320,993,
308,992,
296,992,
306,992,
315,992,
321,993,
313,993,
302,992,
308,992,
320,992,
326,993,
320,993,
306,993,
312,993,
321,993,
329,992,
326,993,
311,993,
319,994,
328,993,
338,993,
337,992,
326,993,
330,993,
344,992,
355,992,
356,993,
346,993,
351,993,
362,993,
373,993,
378,993,
368,993,
364,993,
379,992,
389,993,
394,993,
378,993,
374,993,
384,992,
394,992,
395,993,
381,993,
372,992,
381,993,
389,993,
391,993,
377,992,
368,993,
373,993,
382,992,
384,992,
370,993,
361,993,
363,993,
373,993,
374,993,
365,993,
350,992,
355,993,
362,993,
364,993,
355,993,
340,993,
339,993,
346,993,
351,993,
345,993,
329,992,
329,992,
336,993,
341,992,
335,992,
319,992,
319,993,
327,993,
332,993,
330,993,
312,993,
310,992,
319,992,
325,993,
322,993,
309,993,
301,993,
313,993,
321,992,
321,993,
306,993,
300,993,
310,993,
318,992,
321,992,
307,993,
299,993,
308,992,
318,993,
323,993,
311,993,
302,992,
310,993,
320,991,
324,991,
313,992,
304,992,
311,992,
321,992,
325,991,
318,643,
309,0,
314,0,
324,0,
333,0,
325,0,
310,0,
313,0,
323,0,
327,0,
327,0,
313,0,
309,0,
318,0,
326,0,
326,0,
312,0,
306,0,
313,0,
321,0,
326,0,
318,0,
306,0,
311,0,
320,0,
327,0,
322,0,
308,0,
306,0,
314,0,
321,0,
320,0,
305,0,
303,0,
311,0,
317,0,
321,0,
311,0,
299,0,
307,0,
317,0,
318,0,
313,0,
298,0,
303,0,
312,0,
319,0,
318,0,
304,0,
304,0,
312,0,
320,0,
321,0,
308,0,
301,0,
309,0,
318,0,
322,0,
312,0,
302,0,
311,0,
317,0,
325,0,
319,0,
308,0,
315,0,
325,0,
334,0,
334,0,
323,0,
323,0,
337,0,
350,0,
357,0,
348,0,
343,0,
354,0,
369,0,
377,0,
372,0,
364,0,
373,0,
383,0,
391,0,
387,0,
375,0,
376,0,
386,0,
394,0,
394,0,
381,0,
377,0,
385,0,
393,0,
395,0,
382,0,
372,0,
379,0,
382,0,
387,0,
379,0,
363,0,
367,0,
373,0,
378,0,
370,0,
353,0,
355,0,
363,0,
369,0,
368,0,
350,0,
343,0,
350,0,
353,0,
356,0,
342,0,
332,0,
335,0,
339,0,
343,0,
335,0,
320,0,
320,0,
329,0,
332,0,
330,0,
313,0,
311,0,
317,0,
326,0,
325,0,
311,0,
301,0,
307,0,
318,0,
322,0,
312,0,
300,0,
307,0,
312,0,
320,0,
313,0,
300,0,
304,0,
312,0,
322,0,
319,0,
306,0,
303,0,
315,0,
321,0,
325,0,
310,0,
304,0,
314,0,
323,0,
326,0,
316,0,
305,0,
311,0,
319,0,
324,23,
319,69,
304,113,
307,159,
316,204,
323,249,
319,286,
306,325,
305,361,
314,395,
320,427,
317,456,
302,479,
298,502,
308,525,
316,546,
312,560,
298,578,
293,588,
305,601,
312,609,
314,616,
298,619,
298,619,
306,619,
316,620,
318,618,
305,614,
297,612,
304,623,
313,635,
317,643,
308,649,
298,651,
308,653,
314,653,
322,646,
311,639,
304,627,
310,622,
319,618,
327,603,
318,588,
307,578,
315,568,
326,555,
330,545,
324,534,
312,519,
315,507,
323,499,
333,488,
326,478,
311,465,
313,459,
322,451,
329,445,
325,440,
311,436,
311,434,
320,435,
327,435,
326,439,
312,443,
310,440,
321,439,
329,437,
330,436,
319,439,
314,443,
327,448,
341,455,
348,466,
337,469,
335,477,
347,487,
359,499,
367,512,
356,527,
353,545,
366,559,
378,571,
385,581,
375,589,
369,601,
380,614,
390,628,
398,638,
386,648,
377,656,
384,657,
394,650,
397,646,
389,640,
375,634,
383,632,
387,630,
393,626,
384,626,
372,626,
374,626,
379,629,
387,622,
379,616,
362,610,
364,609,
372,607,
374,609,
369,608,
355,607,
353,607,
361,613,
365,613,
361,607,
344,599,
343,593,
349,590,
353,588,
350,587,
336,587,
329,588,
336,579,
343,569,
341,558,
326,547,
320,543,
328,539,
334,535,
333,528,
318,521,
312,512,
321,506,
328,498,
329,490,
315,484,
309,480,
315,476,
321,474,
324,470,
311,467,
300,469,
308,467,
316,462,
321,460,
312,455,
301,455,
306,456,
318,457,
323,457,
317,456,
305,452,
310,454,
320,460,
327,465,
320,460,
306,456,
308,455,
315,462,
321,461,
317,460,
303,458,
308,462,
314,466,
320,469,
320,474,
306,477,
307,484,
314,494,
321,495,
319,488,
304,480,
304,475,
314,478,
321,479,
322,478,
307,475,
304,469,
314,468,
320,467,
323,466,
310,464,
302,465,
310,467,
321,468,
324,467,
312,468,
304,465,
311,467,
320,470,
322,472,
311,469,
299,462,
305,458,
316,453,
320,447,
311,440,
300,434,
306,434,
315,436,
319,435,
314,437,
303,437,
307,440,
317,443,
322,446,
317,447,
302,450,
308,457,
317,462,
322,459,
317,451,
303,441,
307,433,
314,431,
321,430,
320,427,
302,427,
304,428,
315,432,
322,435,
321,439,
309,441,
306,448,
317,457,
324,466,
325,470,
312,476,
308,480,
317,496,
325,538,
329,571,
319,564,
314,546,
323,528,
334,513,
342,500,
331,485,
325,477,
338,473,
348,469,
358,467,
347,467,
341,468,
353,473,
365,481,
373,486,
367,490,
360,494,
368,501,
380,510,
385,515,
381,521,
372,529,
378,536,
391,543,
396,552,
388,557,
379,563,
382,569,
391,576,
396,581,
391,584,
377,588,
380,594,
388,597,
391,601,
387,602,
372,603,
371,608,
378,611,
383,613,
377,616,
364,615,
359,617,
366,620,
371,625,
370,626,
355,627,
346,625,
355,627,
359,630,
359,627,
344,614,
336,602,
344,594,
350,587,
350,581,
337,575,
326,572,
331,566,
338,555,
339,541,
326,528,
315,515,
321,503,
328,496,
332,489,
320,480,
307,473,
312,472,
318,470,
322,469,
314,471,
302,471,
306,473,
313,472,
318,477,
310,476,
297,474,
303,467,
310,466,
316,464,
309,466,
297,463,
300,463,
306,464,
315,465,
312,468,
298,466,
300,468,
309,469,
317,474,
316,478,
304,484,
303,493,
313,504,
320,514,
321,519,
306,527,
303,523,
314,518,
321,510,
324,502,
311,491,
306,484,
314,479,
324,473,
325,467,
313,462,
306,455,
313,453,
323,449,
325,447,
314,443,
305,439,
312,437,
321,437,
326,437,
312,436,
301,434,
307,437,
316,442,
319,444,
312,446,
300,447,
306,450,
317,452,
321,454,
314,453,
302,449,
307,449,
315,449,
321,448,
316,446,
300,442,
306,442,
315,439,
323,438,
317,436,
305,432,
306,429,
315,431,
322,432,
321,432,
305,426,
306,423,
317,418,
324,413,
321,409,
312,408,
304,411,
316,417,
321,424,
325,431,
310,432,
306,438,
312,437,
324,436,
325,431,
314,427,
304,424,
313,427,
323,432,
326,436,
315,437,
307,440,
317,443,
325,449,
330,457,
321,464,
310,472,
319,485,
331,498,
336,500,
331,501,
323,504,
331,509,
343,516,
352,523,
348,531,
339,537,
346,550,
364,561,
369,568,
366,574,
357,578,
363,586,
372,597,
382,604,
378,610,
368,619,
371,630,
380,638,
389,637,
387,634,
376,630,
374,624,
384,621,
390,620,
387,616,
376,610,
368,604,
379,603,
383,605,
384,605,
366,605,
361,603,
369,599,
374,596,
375,591,
358,586,
351,583,
357,583,
363,581,
363,579,
350,578,
339,577,
343,577,
352,573,
353,566,
341,560,
328,559,
335,562,
340,561,
344,559,
336,550,
323,537,
330,527,
337,518,
340,511,
329,505,
318,502,
320,504,
325,507,
332,500,
323,492,
310,482,
315,481,
322,482,
327,487,
323,489,
308,484,
307,483,
315,482,
319,479,
317,476,
301,477,
301,481,
310,487,
318,491,
316,489,
301,491,
299,488,
310,485,
317,480,
320,476,
307,476,
302,474,
312,476,
319,476,
321,476,
310,474,
303,474,
313,479,
321,481,
327,481,
315,475,
307,470,
317,467,
323,467,
328,465,
318,462,
310,462,
316,460,
325,460,
329,461,
320,463,
307,459,
315,459,
324,458,
325,461,
320,465,
307,469,
309,470,
321,466,
325,462,
320,456,
304,450,
310,451,
318,454,
324,456,
320,460,
308,463,
311,469,
315,477,
323,482,
320,482,
306,481,
304,479,
313,476,
319,469,
318,466,
302,460,
303,453,
313,451,
319,452,
319,452,
307,446,
301,443,
309,445,
319,448,
321,443,
307,441,
303,444,
310,444,
321,445,
324,443,
311,439,
304,440,
313,443,
320,448,
325,456,
313,459,
307,459,
313,457,
320,456,
325,462,
318,462,
310,464,
319,466,
330,474,
335,479,
332,486,
326,495,
332,501,
346,511,
356,519,
349,529,
342,536,
350,547,
364,561,
373,574,
372,585,
359,596,
364,606,
377,613,
386,619,
385,624,
374,627,
374,629,
382,637,
391,643,
392,645,
378,646,
377,646,
386,646,
391,643,
390,641,
378,641,
369,642,
377,646,
384,648,
385,645,
369,644,
365,642,
370,641,
376,641,
378,638,
363,628,
355,617,
359,613,
367,608,
368,604,
354,594,
345,585,
350,575,
357,567,
359,558,
346,548,
333,540,
339,534,
344,529,
346,523,
336,515,
323,509,
326,505,
332,500,
334,496,
326,492,
308,487,
315,486,
322,484,
323,486,
318,486,
302,484,
304,487,
313,489,
317,491,
314,493,
296,491,
299,490,
307,493,
313,490,
312,490,
298,487,
297,489,
304,492,
313,495,
312,497,
299,492,
294,487,
304,485,
310,483,
314,483,
303,479,
299,480,
308,482,
318,483,
319,482,
306,481,
301,482,
312,483,
320,484,
324,485,
313,486,
305,488,
312,488,
321,490,
326,492,
317,492,
305,492,
313,495,
321,498,
325,502,
316,499,
302,486,
309,475,
316,464,
322,450,
313,441,
304,431,
307,426,
315,421,
321,416,
316,413,
303,409,
305,407,
316,408,
321,414,
317,416,
305,419,
306,424,
316,429,
324,437,
324,442,
309,448,
308,450,
315,452,
324,452,
322,453,
311,453,
305,455,
317,455,
325,451,
326,449,
313,444,
310,443,
320,446,
327,448,
330,452,
317,455,
309,455,
319,461,
327,461,
330,463,
319,466,
309,467,
317,472,
326,475,
330,479,
320,482,
311,481,
317,478,
327,478,
332,474,
323,473,
311,476,
319,483,
327,488,
330,489,
324,483,
312,473,
317,466,
326,460,
331,457,
327,452,
314,453,
318,456,
326,460,
333,465,
329,470,
317,476,
318,484,
330,495,
338,505,
338,516,
326,520,
329,527,
341,534,
354,543,
355,551,
348,562,
349,575,
363,591,
374,606,
379,619,
368,616,
368,609,
378,601,
388,593,
393,587,
380,579,
377,575,
388,574,
397,572,
400,570,
389,570,
381,567,
389,568,
397,571,
400,574,
389,581,
378,589,
383,593,
391,600,
394,600,
380,602,
367,605,
372,612,
381,617,
378,620,
371,625,
355,631,
359,639,
366,648,
369,655,
361,653,
345,649,
346,643,
355,638,
360,636,
353,637,
338,628,
336,620,
346,613,
348,608,
345,602,
329,596,
326,595,
334,594,
338,591,
332,588,
319,585,
315,585,
322,583,
329,572,
327,563,
312,554,
306,539,
315,527,
321,519,
323,511,
308,500,
302,493,
311,489,
319,484,
323,475,
311,468,
302,466,
312,466,
318,466,
321,471,
312,476,
304,481,
310,489,
319,494,
323,496,
315,500,
304,505,
310,511,
318,506,
321,499,
313,489,
301,484,
308,483,
317,484,
320,484,
314,483,
301,481,
306,478,
313,475,
323,470,
315,467,
307,464,
309,466,
317,465,
325,465,
320,465,
306,465,
307,461,
317,459,
327,454,
324,450,
309,447,
305,448,
314,448,
322,445,
320,439,
307,437,
301,436,
309,444,
319,447,
321,447,
305,448,
302,453,
312,458,
320,461,
323,461,
309,457,
301,453,
313,458,
318,460,
322,457,
312,456,
304,456,
311,460,
319,461,
324,455,
314,453,
304,456,
313,459,
319,460,
325,461,
317,463,
307,458,
313,454,
322,453,
327,446,
320,443,
309,443,
312,447,
321,452,
325,457,
320,459,
306,460,
309,461,
319,462,
324,462,
320,462,
307,462,
310,461,
317,462,
324,459,
324,454,
309,449,
308,448,
318,449,
326,450,
322,449,
315,443,
310,437,
323,444,
331,443,
331,443,
320,446,
316,450,
326,460,
333,469,
338,481,
329,491,
327,500,
338,515,
349,528,
356,534,
350,538,
345,544,
357,551,
369,559,
376,567,
370,577,
364,591,
374,606,
386,615,
393,625,
386,634,
376,642,
382,650,
394,659,
397,663,
391,667,
380,673,
384,675,
393,677,
398,677,
391,673,
377,666,
379,661,
386,655,
389,651,
385,645,
368,640,
369,639,
375,634,
381,630,
378,627,
361,625,
361,625,
367,626,
370,626,
370,626,
356,623,
351,616,
358,610,
364,602,
364,595,
346,586,
342,575,
350,572,
354,567,
354,566,
338,561,
330,560,
337,562,
344,562,
343,556,
330,553,
320,547,
328,543,
333,534,
337,528,
319,520,
312,512,
318,507,
324,505,
327,500,
316,496,
304,494,
310,497,
317,496,
319,497,
312,495,
298,494,
305,495,
314,495,
318,494,
309,491,
300,490,
303,493,
312,493,
318,493,
316,495,
303,493,
308,490,
316,480,
323,475,
318,472,
305,469,
306,470,
315,474,
322,475,
321,476,
310,476,
307,473,
316,473,
324,471,
323,472,
308,471,
306,472,
316,470,
323,466,
326,464,
312,462,
305,464,
314,469,
320,470,
321,460,
305,450,
298,439,
306,432,
313,424,
317,417,
306,409,
299,406,
303,402,
315,401,
317,399,
308,398,
298,395,
305,400,
314,402,
318,406,
311,418,
299,429,
304,441,
312,453,
318,462,
311,470,
298,478,
302,486,
312,491,
317,497,
312,497,
300,495,
302,497,
312,501,
320,506,
319,507,
308,504,
308,496,
318,488,
326,480,
322,471,
311,464,
311,466,
321,471,
328,472,
328,473,
314,473,
308,470,
320,471,
325,469,
329,468,
313,464,
308,465,
317,464,
323,464,
325,462,
314,459,
306,460,
317,466,
325,469,
329,472,
317,477,
311,477,
319,473,
328,468,
332,461,
322,455,
311,451,
317,450,
324,450,
330,451,
321,451,
309,447,
313,444,
323,441,
328,438,
319,441,
308,439,
313,441,
321,445,
328,454,
323,462,
312,468,
316,475,
324,485,
335,498,
335,510,
325,517,
332,526,
343,540,
353,547,
358,549,
347,548,
349,553,
363,566,
374,575,
376,579,
365,585,
365,591,
380,602,
390,609,
394,615,
383,619,
378,622,
388,624,
396,624,
399,626,
384,631,
379,632,
386,634,
394,634,
399,634,
383,634,
375,633,
380,636,
386,636,
392,633,
378,626,
365,627,
371,632,
378,631,
380,625,
369,620,
356,616,
363,618,
365,615,
369,610,
362,606,
348,599,
352,594,
357,592,
360,589,
354,586,
340,582,
339,581,
347,580,
352,577,
345,574,
332,566,
331,559,
338,555,
342,556,
338,552,
322,541,
319,533,
325,527,
330,520,
327,513,
313,504,
307,498,
316,494,
323,487,
323,483,
308,480,
302,473,
311,473,
317,471,
320,470,
307,467,
299,466,
309,470,
316,472,
320,476,
309,478,
300,484,
309,489,
318,496,
321,502,
311,503,
303,503,
311,499,
317,495,
323,490,
315,484,
304,479,
314,479,
319,475,
324,473,
319,470,
307,467,
311,469,
319,468,
325,466,
317,465,
302,463,
307,463,
316,464,
324,466,
318,467,
304,467,
304,471,
314,473,
321,474,
319,477,
304,482,
305,484,
315,489,
321,492,
321,490,
307,484,
305,478,
313,471,
324,464,
322,455,
311,449,
305,443,
315,444,
325,443,
322,444,
309,448,
306,455,
313,457,
320,452,
323,446,
311,439,
303,434,
312,431,
320,429,
324,426,
311,421,
306,426,
313,429,
319,432,
324,436,
315,440,
304,441,
312,446,
320,453,
325,454,
318,452,
307,450,
312,451,
320,452,
327,449,
320,452,
307,453,
315,461,
322,466,
330,472,
323,477,
311,476,
315,479,
322,476,
328,476,
326,471,
311,468,
315,468,
326,471,
333,476,
330,484,
321,491,
320,497,
332,502,
340,503,
343,508,
332,510,
328,515,
343,526,
355,540,
362,548,
352,556,
348,568,
358,579,
370,588,
376,594,
367,599,
362,601,
373,605,
384,604,
390,602,
380,598,
373,598,
379,597,
388,597,
392,596,
382,595,
372,593,
379,593,
386,596,
389,603,
379,610,
364,615,
371,622,
377,624,
380,624,
371,626,
356,627,
357,626,
365,626,
369,623,
364,620,
346,619,
349,621,
356,620,
360,616,
353,613,
340,609,
338,608,
345,612,
350,609,
346,606,
326,592,
327,580,
335,568,
340,558,
335,545,
323,537,
318,527,
327,523,
333,517,
332,513,
313,508,
310,505,
317,508,
323,511,
325,509,
308,504,
301,499,
308,498,
315,500,
315,500,
306,495,
296,492,
304,492,
313,491,
316,490,
306,486,
298,487,
304,485,
312,477,
317,466,
309,456,
298,447,
304,442,
313,438,
317,433,
311,430,
298,429,
303,429,
314,432,
320,440,
316,447,
303,454,
307,464,
317,472,
326,474,
320,475,
307,472,
311,476,
318,478,
327,481,
326,482,
313,479,
313,481,
322,489,
331,496,
326,495,
312,493,
311,493,
320,493,
327,495,
328,492,
317,486,
313,479,
321,476,
328,476,
332,472,
321,469,
312,468,
322,468,
330,467,
329,466,
319,464,
309,463,
316,467,
321,465,
324,467,
313,466,
303,464,
309,462,
317,464,
321,463,
311,455,
302,448,
308,448,
316,449,
319,448,
313,447,
301,442,
307,440,
316,442,
320,447,
315,447,
302,448,
306,450,
312,455,
322,453,
318,451,
304,445,
309,440,
320,440,
327,438,
322,439,
311,439,
312,444,
321,449,
328,456,
328,464,
317,474,
316,485,
327,497,
338,507,
341,514,
332,521,
330,527,
345,540,
356,548,
361,552,
353,555,
353,563,
365,571,
378,584,
385,590,
373,597,
369,602,
380,609,
389,615,
393,622,
386,623,
376,625,
386,628,
394,633,
396,636,
387,635,
375,637,
383,638,
391,636,
393,638,
385,637,
371,633,
376,631,
379,625,
384,617,
375,609,
359,600,
362,596,
368,591,
371,587,
363,582,
348,579,
348,579,
356,582,
359,577,
353,570,
339,561,
336,557,
344,557,
348,560,
344,558,
325,553,
325,555,
332,550,
338,540,
333,532,
322,530,
313,527,
323,525,
330,519,
327,519,
311,510,
304,507,
312,504,
318,504,
319,502,
305,497,
299,498,
304,501,
311,497,
314,494,
305,494,
296,492,
304,494,
311,498,
316,493,
306,492,
298,494,
305,495,
313,497,
321,496,
314,494,
304,496,
312,499,
321,497,
328,491,
323,491,
312,490,
317,492,
327,490,
332,486,
326,481,
315,474,
317,473,
324,477,
331,481,
325,484,
312,484,
315,487,
324,492,
332,491,
328,483,
314,476,
313,478,
323,482,
331,481,
328,479,
315,479,
312,479,
322,479,
329,481,
331,479,
318,478,
311,477,
321,478,
326,478,
330,473,
316,463,
311,458,
315,456,
324,456,
327,456,
315,457,
306,458,
314,458,
321,461,
325,464,
315,465,
304,461,
312,458,
320,460,
323,461,
312,458,
302,457,
307,458,
316,462,
319,462,
312,461,
298,460,
307,458,
313,464,
319,467,
315,466,
301,457,
305,456,
314,457,
320,462,
315,463,
303,468,
305,469,
316,470,
323,474,
321,476,
310,476,
313,480,
323,487,
333,496,
334,506,
326,518,
328,524,
340,536,
356,548,
360,557,
353,565,
353,571,
366,584,
379,590,
384,602,
377,610,
374,614,
385,615,
396,618,
400,625,
390,632,
383,639,
393,644,
400,649,
403,654,
391,651,
384,650,
390,648,
396,649,
401,650,
391,647,
377,642,
384,638,
390,637,
391,633,
381,630,
367,630,
370,629,
377,627,
379,623,
372,622,
356,620,
357,621,
364,612,
368,605,
361,597,
346,590,
347,592,
352,596,
357,598,
352,600,
336,600,
335,599,
342,599,
345,590,
344,580,
326,569,
326,559,
333,554,
338,552,
337,549,
323,544,
316,541,
327,542,
333,541,
333,539,
319,534,
313,531,
320,529,
326,527,
329,524,
315,518,
307,520,
316,522,
324,524,
327,521,
313,515,
309,511,
316,501,
323,488,
328,473,
318,462,
310,454,
312,448,
321,445,
328,445,
317,444,
305,449,
312,453,
321,457,
327,461,
321,469,
308,471,
313,471,
322,475,
328,481,
323,486,
309,484,
311,488,
322,493,
328,493,
321,493,
305,492,
308,491,
317,490,
324,488,
320,483,
305,480,
304,484,
313,486,
319,482,
317,479,
304,478,
300,476,
311,475,
319,473,
320,469,
308,468,
305,469,
314,476,
322,479,
323,478,
313,473,
303,466,
313,466,
321,464,
323,467,
312,468,
305,469,
311,473,
320,478,
323,477,
311,476,
300,475,
308,469,
317,463,
320,462,
311,460,
300,459,
305,458,
314,458,
317,447,
312,443,
299,439,
304,443,
315,445,
321,449,
317,454,
305,456,
313,460,
323,466,
334,475,
333,479,
325,487,
332,496,
344,508,
354,518,
359,524,
347,535,
353,550,
367,563,
378,573,
382,586,
372,591,
372,596,
387,601,
394,608,
399,620,
386,633,
385,639,
394,645,
403,646,
405,648,
395,655,
388,660,
398,668,
406,673,
407,677,
394,679,
387,683,
391,688,
400,689,
404,693,
386,695,
379,697,
383,695,
390,692,
391,692,
381,690,
371,683,
372,683,
379,680,
382,677,
372,671,
360,664,
364,659,
369,655,
371,656,
364,654,
349,651,
351,652,
359,645,
366,635,
360,624,
344,611,
343,603,
351,597,
357,592,
352,583,
336,572,
335,562,
342,551,
346,540,
342,530,
326,520,
322,515,
329,512,
334,505,
331,495,
318,488,
310,482,
319,485,
324,490,
325,487,
311,482,
303,481,
312,478,
319,473,
320,469,
308,465,
300,462,
307,461,
317,460,
319,459,
307,461,
299,463,
308,466,
316,474,
321,478,
312,484,
300,490,
309,497,
318,503,
321,510,
314,518,
301,523,
309,526,
319,529,
324,531,
316,531,
306,524,
311,514,
321,506,
328,496,
323,486,
308,476,
313,470,
323,464,
330,459,
325,451,
315,445,
314,442,
323,442,
329,440,
328,439,
313,438,
311,438,
320,439,
327,442,
324,444,
313,448,
307,454,
319,463,
325,467,
326,473,
311,475,
307,475,
315,474,
321,472,
324,470,
309,470,
300,472,
309,476,
314,472,
318,470,
306,468,
297,470,
305,477,
311,473,
318,463,
305,457,
294,457,
301,457,
311,455,
315,453,
309,455,
300,455,
308,464,
319,466,
326,468,
323,475,
313,486,
323,500,
338,513,
352,521,
351,529,
345,541,
354,557,
368,572,
380,588,
382,606,
373,617,
380,627,
394,640,
407,650,
406,658,
398,665,
398,673,
410,684,
419,695,
418,702,
408,704,
403,704,
416,710,
423,713,
424,718,
410,722,
403,724,
410,727,
418,728,
416,727,
402,728,
393,727,
399,724,
404,720,
405,715,
391,708,
380,703,
385,702,
391,702,
393,702,
382,701,
371,698,
373,700,
382,699,
381,691,
369,684,
357,671,
364,665,
368,650,
368,631,
361,612,
348,592,
350,577,
359,562,
360,549,
349,534,
335,521,
335,509,
342,499,
346,491,
340,484,
324,476,
325,471,
331,468,
335,465,
332,461,
313,458,
313,456,
319,455,
325,456,
322,455,
309,457,
304,462,
315,474,
322,484,
323,492,
310,499,
305,507,
314,519,
321,528,
323,534,
311,539,
308,547,
316,552,
323,553,
326,546,
314,531,
306,518,
316,505,
325,493,
330,482,
317,470,
307,462,
315,455,
324,450,
327,447,
317,444,
306,446,
311,453,
320,458,
323,462,
317,466,
304,464,
309,465,
316,465,
324,462,
318,459,
306,454,
309,454,
319,455,
323,456,
318,456,
305,453,
306,450,
315,447,
320,446,
318,447,
304,451,
303,458,
313,468,
318,476,
317,476,
304,470,
300,463,
309,457,
317,452,
316,446,
303,440,
297,433,
307,433,
314,434,
317,433,
304,432,
298,437,
303,437,
311,441,
316,443,
303,446,
294,440,
305,437,
313,432,
316,432,
305,431,
296,433,
304,433,
312,438,
316,440,
304,440,
296,442,
303,444,
313,441,
317,437,
310,435,
303,439,
309,447,
321,457,
328,465,
325,468,
315,468,
323,470,
340,474,
350,477,
351,482,
343,490,
353,504,
367,522,
378,543,
377,560,
369,580,
377,593,
388,607,
400,622,
403,634,
391,647,
393,655,
404,664,
412,676,
413,686,
401,693,
399,695,
410,702,
418,705,
417,707,
404,705,
400,707,
406,709,
415,712,
415,712,
401,710,
393,711,
401,714,
406,710,
409,699,
392,688,
386,678,
393,670,
400,661,
402,652,
388,644,
376,636,
380,631,
385,625,
388,622,
379,621,
364,624,
370,628,
375,630,
376,631,
366,630,
352,626,
353,622,
361,618,
363,604,
355,588,
338,569,
339,556,
344,543,
349,529,
340,515,
324,501,
323,492,
329,483,
334,475,
329,468,
311,459,
309,455,
315,450,
321,447,
319,443,
306,438,
300,437,
310,440,
316,444,
318,449,
305,453,
300,448,
307,451,
314,456,
317,464,
304,476,
297,486,
305,499,
313,502,
318,500,
309,495,
300,490,
309,491,
317,492,
321,490,
310,486,
301,485,
306,488,
315,493,
318,497,
310,496,
300,497,
306,501,
314,501,
317,497,
311,494,
296,492,
303,496,
312,494,
317,490,
309,477,
297,463,
301,451,
309,443,
315,433,
310,423,
297,416,
300,410,
306,408,
311,406,
310,402,
294,402,
296,404,
305,408,
312,412,
311,417,
300,423,
298,429,
308,433,
314,433,
314,431,
305,432,
299,433,
308,437,
316,432,
317,425,
306,418,
300,417,
307,418,
315,423,
318,423,
308,416,
297,412,
303,411,
314,415,
317,418,
307,421,
298,422,
305,419,
309,417,
317,417,
306,415,
296,414,
304,418,
311,422,
316,427,
310,424,
298,423,
304,422,
312,420,
318,415,
312,413,
301,413,
305,417,
314,419,
321,420,
314,423,
299,422,
304,425,
311,430,
315,431,
313,432,
297,434,
299,433,
307,434,
315,435,
309,430,
297,421,
295,414,
305,411,
311,411,
312,417,
300,419,
296,426,
308,435,
317,439,
320,441,
310,442,
305,447,
320,457,
330,469,
337,483,
329,491,
329,501,
343,509,
359,517,
370,526,
362,537,
361,551,
373,568,
390,582,
399,591,
394,603,
388,616,
401,625,
412,632,
420,636,
414,646,
404,657,
409,669,
420,678,
426,683,
420,690,
409,695,
410,699,
420,702,
424,699,
418,699,
405,701,
407,705,
413,704,
418,704,
413,699,
398,696,
398,694,
403,693,
409,692,
406,688,
387,682,
386,674,
392,665,
397,657,
393,648,
379,642,
371,626,
380,612,
384,598,
385,588,
367,576,
361,572,
365,574,
371,577,
371,576,
356,571,
346,571,
352,568,
357,567,
355,566,
340,566,
333,562,
337,563,
342,560,
344,558,
327,548,
316,535,
323,523,
329,513,
330,504,
317,497,
305,487,
311,482,
317,478,
319,471,
312,468,
301,463,
306,461,
314,460,
318,460,
314,458,
301,455,
304,456,
314,457,
318,460,
315,459,
301,457,
303,459,
313,457,
320,459,
316,458,
303,458,
302,459,
312,464,
320,467,
319,471,
307,479,
303,488,
312,495,
319,500,
321,501,
307,506,
304,503,
312,503,
319,501,
323,499,
306,493,
302,488,
311,484,
317,474,
319,468,
308,461,
298,455,
304,453,
311,451,
315,453,
303,445,
295,444,
303,446,
311,445,
312,441,
303,439,
291,439,
296,441,
305,442,
307,439,
303,440,
289,440,
296,446,
304,444,
310,439,
304,432,
289,426,
294,421,
304,418,
311,412,
308,407,
295,403,
297,400,
306,399,
312,398,
312,398,
298,398,
298,400,
306,403,
315,406,
314,407,
298,410,
299,412,
310,417,
317,420,
318,423,
306,426,
298,428,
310,425,
318,415,
319,408,
307,398,
301,391,
310,387,
318,383,
320,380,
308,379,
302,385,
311,391,
320,393,
321,396,
310,403,
300,412,
307,419,
316,427,
319,436,
310,437,
298,438,
307,446,
314,445,
318,444,
309,445,
298,446,
302,449,
314,453,
316,459,
309,465,
295,466,
299,465,
312,460,
317,458,
312,452,
300,448,
304,446,
310,446,
321,448,
318,450,
307,452,
308,452,
318,454,
324,457,
325,459,
312,455,
310,449,
319,447,
327,450,
328,448,
315,444,
309,440,
320,438,
329,435,
331,433,
315,433,
313,434,
321,436,
329,433,
332,429,
314,427,
308,420,
318,420,
327,424,
328,429,
317,437,
308,443,
317,442,
323,442,
326,446,
316,449,
305,455,
311,463,
322,470,
327,479,
320,487,
312,498,
322,509,
332,512,
340,515,
336,522,
332,530,
342,540,
353,552,
367,554,
366,561,
360,566,
368,571,
383,578,
392,585,
394,592,
384,599,
390,600,
403,606,
413,611,
414,613,
403,616,
404,618,
415,621,
423,620,
421,619,
409,623,
404,623,
412,624,
417,626,
418,626,
405,625,
400,626,
406,630,
411,626,
410,620,
394,610,
389,602,
393,597,
397,597,
397,595,
383,596,
378,598,
381,598,
385,601,
387,605,
375,601,
363,599,
367,601,
374,601,
377,603,
367,599,
352,593,
357,589,
363,587,
366,582,
356,580,
342,580,
346,579,
351,581,
354,578,
347,575,
329,569,
332,563,
337,554,
341,547,
335,541,
319,536,
319,532,
326,531,
330,525,
326,515,
312,502,
311,496,
319,496,
324,496,
323,494,
309,490,
303,489,
312,491,
320,488,
320,487,
303,485,
301,482,
310,488,
316,485,
318,479,
306,482,
299,479,
306,476,
315,478,
318,482,
307,481,
302,480,
307,487,
316,487,
320,482,
311,474,
304,473,
311,474,
319,475,
323,480,
314,480,
304,479,
309,482,
316,485,
321,489,
314,491,
302,488,
306,484,
314,479,
319,475,
314,476,
300,473,
302,476,
315,476,
318,478,
314,475,
299,471,
304,472,
313,470,
318,469,
317,469,
304,468,
303,456,
312,452,
319,441,
318,433,
301,427,
300,429,
307,430,
312,431,
313,430,
297,431,
292,435,
304,435,
310,434,
314,432,
300,630,
294,992,
301,993,
310,993,
313,992,
295,992,
291,991,
298,991,
306,991,
311,992,
298,992,
293,992,
298,993,
308,991,
312,992,
304,992,
294,991,
302,992,
312,992,
317,992,
310,853,
299,697,
304,553,
313,423,
322,302,
315,197,
303,102,
308,20,
316,0,
322,0,
318,0,
307,0,
309,0,
315,0,
322,0,
320,0,
309,0,
305,0,
311,0,
320,0,
322,0,
307,0,
303,0,
306,0,
316,0,
319,0,
310,0,
301,0,
304,0,
312,0,
318,0,
316,0,
302,0,
302,0,
311,0,
321,40,
323,76,
311,110,
307,147,
316,184,
325,220,
327,255,
313,287,
309,316,
318,349,
326,376,
331,401,
318,424,
312,446,
317,468,
328,488,
330,503,
319,516,
307,530,
315,543,
323,554,
327,562,
320,569,
308,575,
316,583,
326,588,
332,592,
328,596,
319,599,
324,603,
338,604,
348,607,
347,608,
338,608,
347,609,
359,609,
373,609,
373,607,
368,607,
373,606,
388,606,
396,604,
397,602,
388,598,
390,596,
403,596,
411,592,
411,589,
401,585,
397,583,
406,581,
413,578,
414,574,
401,572,
396,567,
404,568,
410,566,
412,563,
394,561,
387,559,
391,559,
396,555,
396,553,
381,551,
369,550,
375,549,
381,550,
381,549,
367,546,
356,546,
360,546,
369,547,
370,545,
359,543,
347,541,
353,544,
359,543,
361,541,
354,540,
340,537,
342,539,
350,537,
355,535,
347,532,
331,528,
334,526,
340,527,
346,523,
339,518,
323,515,
324,513,
331,512,
335,510,
330,507,
313,503,
312,501,
318,499,
324,498,
320,495,
306,493,
301,491,
311,491,
318,488,
315,485,
301,484,
296,481,
306,483,
312,482,
313,482,
303,479,
295,479,
302,478,
313,480,
316,478,
303,478,
297,476,
307,479,
313,479,
319,479,
310,478,
301,479,
309,479,
318,480,
324,480,
315,478,
305,476,
314,478,
322,480,
326,479,
317,478,
306,476,
312,477,
319,479,
325,476,
319,477,
304,473,
309,473,
316,475,
323,474,
313,472,
300,470,
303,472,
309,472,
315,472,
312,470,
299,470,
299,469,
306,469,
315,469,
314,469,
300,465,
298,465,
304,465,
313,464,
309,461,
298,462,
293,458,
305,461,
311,460,
313,461,
298,459,
297,459,
305,459,
312,459,
314,458,
300,458,
292,457,
302,457,
310,459,
314,458,
299,455,
294,454,
302,456,
310,456,
317,456,
305,454,
295,452,
302,454,
313,454,
316,453,
309,450,
300,450,
306,453,
315,453,
320,452,
315,453,
303,452,
308,451,
319,452,
324,455,
319,453,
307,452,
309,452,
321,453,
329,455,
324,454,
310,454,
312,455,
322,456,
328,457,
328,456,
314,455,
315,455,
322,456,
330,457,
326,457,
313,457,
310,455,
320,457,
327,459,
329,459,
314,459,
310,457,
316,460,
326,461,
330,459,
318,459,
310,458,
320,460,
328,462,
330,463,
318,460,
310,462,
319,462,
328,463,
333,463,
322,462,
312,462,
319,463,
325,465,
329,464,
319,465,
308,466,
314,468,
321,469,
326,471,
321,473,
309,474,
313,477,
322,483,
330,487,
325,491,
314,496,
321,502,
330,512,
343,517,
341,524,
331,528,
336,536,
347,542,
360,549,
361,553,
353,558,
357,563,
370,568,
380,572,
381,574,
373,577,
373,579,
386,583,
396,584,
398,584,
387,585,
384,583,
394,586,
403,586,
406,584,
392,580,
387,580,
395,579,
403,578,
406,577,
391,574,
382,569,
389,569,
396,567,
400,565,
382,562,
374,560,
379,559,
386,558,
388,556,
376,554,
364,551,
369,550,
372,550,
376,547,
366,545,
350,543,
357,543,
358,542,
364,540,
357,538,
341,534,
343,534,
351,532,
353,531,
348,529,
331,523,
333,523,
337,521,
343,519,
335,515,
322,513,
320,509,
325,511,
329,507,
326,506,
307,502,
306,501,
311,498,
317,497,
312,496,
301,494,
294,490,
303,491,
310,490,
311,488,
295,486,
290,484,
298,485,
306,485,
306,486,
297,485,
290,483,
300,484,
309,486,
312,484,
301,483,
295,483,
301,483,
309,483,
317,485,
305,484,
296,483,
305,484,
311,486,
319,485,
312,485,
302,484,
307,484,
319,485,
323,483,
316,482,
304,484,
311,484,
320,483,
325,484,
320,483,
306,481,
311,481,
320,482,
323,481,
319,479,
306,476,
308,478,
317,478,
322,477,
318,476,
306,473,
305,472,
312,474,
319,474,
318,471,
305,468,
300,468,
309,469,
316,468,
318,468,
302,465,
298,466,
307,468,
314,469,
316,468,
304,463,
298,465,
305,464,
318,466,
323,465,
309,464,
304,462,
311,463,
321,466,
326,465,
314,463,
306,464,
313,464,
319,464,
328,463,
317,463,
304,462,
311,464,
317,463,
323,463,
317,462,
304,462,
309,463,
318,463,
321,465,
315,464,
302,462,
305,463,
315,466,
320,466,
313,464,
302,462,
303,464,
313,465,
320,468,
316,466,
304,466,
303,466,
313,467,
318,468,
318,467,
306,467,
305,468,
314,469,
324,470,
327,468,
316,467,
310,465,
319,469,
330,471,
331,471,
320,470,
317,469,
323,468,
331,469,
334,469,
323,467,
314,468,
321,471,
330,472,
334,472,
322,473,
314,472,
322,473,
331,473,
334,474,
325,474,
313,472,
320,475,
326,476,
331,477,
321,478,
314,479,
318,484,
325,489,
332,491,
327,494,
312,500,
319,505,
330,513,
338,520,
336,526,
326,529,
333,538,
343,544,
352,550,
352,555,
342,558,
347,566,
356,572,
368,576,
371,578,
359,580,
363,581,
375,586,
384,587,
386,587,
378,585,
375,585,
388,585,
396,586,
400,584,
384,583,
380,581,
388,580,
395,577,
396,576,
384,571,
376,568,
384,568,
390,568,
391,564,
381,559,
370,557,
374,556,
382,553,
383,553,
370,548,
357,545,
364,544,
367,542,
372,540,
361,538,
351,536,
354,535,
357,533,
360,532,
352,530,
335,529,
339,526,
345,527,
349,524,
339,520,
324,516,
325,516,
328,515,
335,515,
324,511,
312,508,
313,507,
320,507,
325,505,
322,502,
305,500,
304,498,
311,498,
317,499,
316,496,
302,494,
298,491,
308,492,
316,493,
315,491,
303,487,
297,487,
306,489,
313,488,
316,488,
301,487,
295,487,
304,488,
312,487,
315,488,
305,487,
296,486,
306,487,
312,488,
317,488,
307,488,
298,488,
304,488,
314,489,
320,489,
310,487,
299,487,
308,489,
316,488,
321,488,
315,487,
305,486,
309,488,
319,487,
328,487,
323,487,
311,484,
316,485,
323,483,
331,484,
328,482,
314,481,
317,481,
327,480,
331,480,
330,479,
315,477,
315,477,
323,477,
330,476,
327,476,
314,472,
310,472,
319,472,
325,473,
326,470,
312,468,
306,467,
315,470,
322,470,
322,471,
309,468,
303,470,
312,470,
320,470,
321,469,
310,467,
302,467,
309,470,
317,471,
322,469,
309,468,
303,469,
308,469,
316,470,
319,469,
310,467,
300,467,
308,469,
315,468,
323,469,
315,469,
305,468,
310,469,
320,470,
326,469,
318,468,
306,467,
311,466,
323,468,
326,468,
322,468,
308,466,
309,468,
319,469,
326,469,
324,467,
309,468,
310,467,
320,470,
327,469,
326,469,
313,468,
310,469,
319,471,
328,471,
327,470,
315,470,
307,468,
320,470,
327,473,
330,474,
317,471,
313,472,
321,473,
331,474,
333,475,
320,473,
314,474,
319,476,
330,478,
335,483,
323,481,
317,486,
323,491,
333,494,
337,500,
329,505,
319,510,
328,518,
338,525,
344,531,
339,537,
330,542,
340,550,
352,557,
359,561,
357,567,
349,570,
356,575,
368,579,
375,583,
372,586,
364,589,
371,589,
380,590,
386,592,
385,592,
373,589,
375,589,
385,589,
393,588,
392,586,
378,583,
377,581,
387,579,
393,577,
391,574,
376,571,
369,568,
377,566,
380,563,
382,562,
367,557,
360,554,
366,553,
370,551,
368,548,
351,544,
347,543,
351,540,
357,540,
357,537,
343,533,
332,531,
338,530,
344,528,
345,526,
331,522,
321,520,
328,519,
335,517,
336,517,
328,514,
314,511,
320,511,
328,509,
328,508,
323,506,
310,503,
315,503,
323,503,
326,500,
318,498,
303,497,
308,496,
315,496,
320,495,
316,493,
299,491,
302,493,
308,492,
314,495,
311,492,
298,491,
297,491,
307,493,
316,493,
315,493,
302,493,
298,492,
309,495,
316,495,
319,495,
305,496,
301,493,
312,496,
318,496,
322,495,
310,495,
307,494,
314,494,
321,494,
327,494,
314,494,
306,491,
314,494,
321,493,
325,492,
314,490,
306,490,
312,490,
321,490,
326,489,
313,486,
307,485,
310,487,
319,487,
322,487,
313,484,
303,484,
310,483,
319,484,
324,484,
320,483,
307,479,
312,481,
323,482,
330,482,
324,481,
312,479,
314,481,
320,481,
329,481,
326,481,
314,480,
313,479,
322,480,
329,478,
328,477,
315,474,
313,476,
323,476,
330,476,
329,475,
316,472,
310,472,
321,474,
327,474,
328,473,
315,471,
311,472,
320,473,
326,473,
330,472,
315,470,
307,469,
315,471,
323,472,
325,470,
314,468,
305,468,
312,469,
321,469,
325,469,
314,468,
306,467,
312,469,
321,470,
325,469,
317,468,
306,467,
310,469,
322,469,
326,469,
317,469,
305,470,
313,472,
320,476,
329,477,
321,479,
310,480,
314,484,
322,489,
329,494,
327,496,
315,503,
319,509,
330,517,
339,524,
342,532,
330,537,
333,545,
346,553,
355,559,
359,563,
350,567,
348,571,
363,579,
372,583,
378,586,
365,590,
365,592,
375,593,
384,596,
387,596,
375,595,
370,597,
381,598,
391,598,
395,595,
382,594,
377,591,
381,589,
391,587,
394,584,
382,580,
370,578,
375,576,
382,573,
385,569,
372,566,
358,562,
363,560,
368,558,
368,555,
358,551,
346,548,
349,547,
355,546,
360,543,
352,539,
339,536,
339,535,
346,535,
352,534,
346,529,
330,526,
328,524,
337,525,
342,522,
337,518,
324,516,
325,514,
331,514,
336,512,
334,510,
319,506,
315,506,
322,505,
329,504,
326,501,
312,500,
306,497,
313,499,
319,499,
321,499,
306,497,
301,496,
308,497,
314,497,
319,499,
306,497,
301,496,
308,498,
317,499,
322,499,
311,498,
304,497,
313,498,
321,501,
325,500,
317,500,
306,500,
313,500,
322,501,
326,500,
321,499,
313,499,
317,498,
324,499,
330,499,
323,497,
310,497,
315,496,
327,496,
330,495,
325,495,
311,493,
313,491,
323,492,
329,492,
328,491,
315,489,
314,488,
322,490,
327,489,
323,489,
308,487,
307,487,
315,488,
322,488,
321,486,
309,485,
303,482,
316,485,
322,484,
323,484,
310,478,
305,480,
313,481,
319,480,
322,479,
310,477,
305,475,
311,476,
320,475,
323,477,
310,475,
304,473,
310,473,
320,475,
323,474,
314,473,
304,471,
313,473,
322,472,
328,472,
318,472,
307,470,
312,471,
324,472,
329,470,
322,470,
310,469,
314,472,
325,473,
330,473,
325,473,
313,471,
317,474,
327,475,
335,478,
332,479,
318,481,
321,484,
330,488,
337,493,
336,498,
324,502,
325,507,
336,514,
345,522,
348,528,
338,534,
335,540,
350,550,
360,557,
365,564,
351,569,
352,577,
364,585,
376,591,
381,596,
372,597,
368,602,
379,607,
388,611,
393,613,
383,615,
376,616,
383,618,
391,620,
398,620,
389,619,
378,617,
387,617,
395,616,
396,615,
387,613,
375,609,
382,611,
385,608,
390,604,
382,603,
368,599,
371,599,
377,597,
381,596,
373,593,
359,589,
361,589,
366,588,
369,586,
362,583,
347,582,
347,581,
352,578,
358,577,
351,575,
337,570,
334,570,
343,568,
348,566,
342,564,
326,560,
320,556,
329,554,
334,553,
334,550,
318,545,
312,540,
320,540,
324,537,
327,534,
312,531,
305,527,
313,526,
320,522,
324,521,
309,517,
301,515,
308,514,
318,511,
322,509,
309,506,
301,506,
309,504,
318,504,
322,503,
315,501,
304,499,
311,499,
319,499,
323,499,
315,498,
306,498,
313,499,
322,498,
330,499,
324,498,
311,497,
317,497,
326,499,
334,499,
327,496,
315,497,
315,498,
324,499,
333,499,
326,498,
312,496,
311,496,
321,496,
327,496,
326,494,
312,493,
309,494,
319,493,
326,493,
328,491,
315,491,
308,489,
319,491,
326,489,
325,490,
312,487,
306,487,
313,488,
321,487,
323,485,
311,486,
305,482,
315,484,
321,483,
322,482,
312,480,
303,480,
310,479,
317,479,
321,479,
312,476,
304,474,
310,475,
318,475,
322,475,
317,474,
306,472,
310,473,
319,473,
324,471,
318,472,
304,471,
310,471,
319,471,
324,471,
319,469,
306,468,
306,469,
316,468,
322,468,
318,467,
305,467,
304,467,
312,468,
317,467,
315,467,
302,466,
300,466,
310,470,
320,472,
320,473,
309,476,
302,478,
314,485,
325,491,
328,497,
316,500,
316,510,
329,519,
344,527,
349,536,
342,540,
339,551,
353,562,
368,570,
377,579,
370,589,
368,596,
378,604,
392,613,
399,618,
393,624,
385,628,
395,635,
404,639,
410,646,
401,648,
392,649,
398,654,
407,657,
412,657,
405,658,
392,657,
397,659,
408,659,
409,658,
401,659,
387,654,
391,654,
399,654,
405,654,
398,653,
383,647,
381,647,
388,646,
392,644,
389,641,
374,637,
371,635,
379,635,
382,632,
379,629,
367,626,
359,622,
367,622,
373,619,
368,616,
356,612,
349,608,
355,606,
360,603,
360,597,
345,593,
337,587,
342,585,
349,582,
350,577,
336,568,
325,566,
331,563,
336,558,
337,553,
325,547,
312,543,
319,541,
325,536,
327,533,
318,529,
307,525,
312,523,
318,522,
320,518,
313,517,
302,513,
306,512,
315,511,
319,511,
314,510,
300,508,
305,508,
312,507,
321,509,
317,508,
302,508,
309,507,
317,508,
325,509,
323,509,
310,507,
310,507,
317,507,
329,509,
326,507,
314,504,
310,505,
321,507,
328,508,
328,507,
318,505,
312,502,
320,505,
325,503,
329,503,
315,500,
309,499,
316,499,
323,498,
324,497,
313,495,
303,493,
312,494,
319,493,
323,492,
312,487,
301,488,
307,487,
315,487,
317,486,
309,485,
298,481,
304,482,
310,483,
316,480,
311,478,
297,476,
302,476,
311,475,
318,474,
312,473,
301,471,
304,472,
313,471,
318,470,
314,469,
300,466,
302,466,
311,465,
317,466,
316,466,
304,465,
304,465,
314,465,
320,466,
318,462,
306,460,
305,460,
312,461,
322,463,
321,461,
310,460,
302,457,
313,460,
320,460,
322,459,
308,456,
303,457,
311,458,
320,458,
323,460,
308,456,
302,458,
313,460,
320,462,
325,465,
313,466,
307,470,
316,474,
322,479,
330,484,
323,490,
314,495,
327,506,
339,514,
346,524,
344,532,
336,541,
348,552,
361,564,
370,572,
369,583,
359,591,
371,602,
382,615,
392,622,
391,631,
381,638,
388,646,
401,653,
409,660,
409,664,
397,668,
400,672,
411,677,
420,679,
418,680,
405,682,
402,682,
412,684,
417,683,
417,683,
403,681,
396,679,
405,681,
412,680,
413,679,
395,678,
389,674,
395,672,
401,669,
402,667,
387,664,
378,659,
385,658,
388,654,
391,652,
377,645,
368,643,
370,640,
376,639,
381,635,
366,628,
353,623,
358,621,
364,618,
365,613,
355,607,
342,601,
347,597,
351,594,
353,586,
344,581,
331,575,
331,570,
339,565,
342,560,
335,555,
320,548,
320,545,
326,541,
331,536,
326,531,
313,525,
312,522,
317,520,
322,516,
322,514,
307,509,
305,507,
316,506,
322,505,
320,504,
310,501,
304,501,
315,501,
321,501,
322,501,
308,499,
306,497,
313,499,
324,499,
325,500,
312,497,
306,498,
315,500,
325,501,
326,500,
316,499,
307,497,
315,499,
322,497,
326,499,
317,497,
307,495,
318,495,
324,496,
329,495,
319,492,
308,491,
314,491,
321,491,
325,489,
319,487,
306,486,
311,486,
320,484,
326,484,
318,483,
304,479,
310,480,
316,480,
321,479,
316,475,
305,474,
305,474,
314,474,
320,473,
317,472,
303,468,
302,468,
309,468,
315,467,
314,464,
301,462,
298,461,
307,463,
312,461,
314,461,
298,460,
294,456,
303,458,
309,459,
310,457,
295,455,
293,454,
304,456,
311,455,
316,455,
305,454,
297,452,
307,454,
314,454,
318,453,
308,453,
298,451,
306,452,
312,452,
319,452,
309,451,
299,449,
307,452,
316,452,
319,452,
312,450,
301,450,
305,450,
312,448,
319,451,
313,451,
299,450,
305,451,
312,448,
320,451,
315,452,
302,449,
305,451,
314,450,
322,454,
316,452,
303,452,
303,451,
313,452,
318,453,
318,453,
304,451,
302,451,
312,451,
322,453,
318,451,
306,452,
303,452,
313,454,
320,455,
323,458,
311,457,
307,460,
316,465,
326,468,
329,473,
316,478,
314,484,
325,491,
336,501,
343,510,
335,517,
333,526,
344,538,
358,548,
369,558,
363,567,
359,575,
373,588,
386,599,
397,609,
393,618,
387,625,
395,636,
407,645,
416,651,
412,658,
402,662,
410,669,
418,675,
426,677,
421,680,
408,681,
409,683,
416,685,
421,687,
417,686,
401,684,
400,684,
408,684,
412,683,
410,681,
393,678,
391,676,
398,676,
402,675,
397,671,
386,668,
379,667,
388,665,
394,664,
396,659,
378,655,
373,651,
378,648,
383,646,
385,642,
369,637,
363,633,
367,630,
374,627,
373,623,
361,616,
350,610,
355,607,
361,603,
360,595,
349,588,
335,581,
339,576,
345,570,
346,566,
334,560,
322,553,
323,549,
329,544,
331,537,
324,533,
309,527,
313,524,
319,521,
324,517,
318,511,
303,507,
307,506,
312,505,
320,503,
317,500,
303,498,
304,496,
312,498,
318,498,
318,496,
304,496,
306,497,
313,498,
322,499,
321,525,
310,582,
305,639,
317,690,
323,727,
326,746,
312,737,
310,714,
320,694,
327,669,
330,647,
318,623,
312,600,
320,577,
326,557,
331,537,
318,513,
311,494,
319,477,
326,461,
331,447,
321,431,
309,418,
316,408,
322,398,
327,389,
318,380,
307,372,
311,369,
318,367,
324,363,
318,360,
304,359,
308,362,
316,365,
322,367,
313,369,
300,371,
303,375,
310,381,
316,386,
312,388,
297,393,
298,398,
308,403,
314,408,
311,414,
297,416,
296,420,
306,426,
313,431,
310,434,
299,437,
294,439,
304,445,
310,449,
312,450,
299,450,
292,450,
303,457,
308,458,
311,459,
299,457,
294,459,
302,461,
311,461,
313,461,
302,459,
293,458,
302,461,
307,460,
311,460,
300,456,
292,457,
301,456,
306,457,
314,457,
304,454,
293,452,
301,452,
309,453,
314,452,
308,451,
295,449,
301,449,
312,449,
317,448,
312,447,
300,445,
306,447,
317,446,
321,445,
319,444,
303,442,
309,442,
314,443,
322,443,
321,442,
308,442,
310,442,
318,443,
326,443,
321,443,
310,441,
307,443,
318,446,
324,448,
324,451,
314,452,
308,455,
321,462,
332,470,
335,475,
324,480,
323,488,
336,498,
344,507,
354,517,
342,524,
341,537,
355,547,
369,560,
377,569,
375,578,
370,588,
381,600,
395,609,
402,619,
395,626,
387,634,
398,644,
410,651,
416,657,
406,661,
402,666,
407,669,
417,674,
421,674,
415,677,
401,676,
403,678,
411,680,
416,678,
409,676,
397,674,
397,672,
405,673,
411,670,
402,667,
387,662,
385,660,
392,658,
395,656,
390,652,
370,646,
370,645,
376,643,
380,639,
375,635,
360,629,
354,625,
362,623,
366,621,
365,615,
351,609,
342,604,
349,602,
354,598,
355,593,
338,586,
335,580,
340,576,
346,572,
346,566,
333,561,
326,553,
329,550,
338,544,
339,540,
329,534,
320,530,
322,525,
331,521,
334,517,
325,513,
314,508,
319,507,
326,503,
327,501,
321,500,
309,496,
314,496,
322,496,
326,495,
320,494,
306,491,
310,491,
320,493,
326,493,
322,492,
309,490,
313,491,
321,494,
325,493,
325,493,
311,491,
311,491,
319,491,
325,492,
323,493,
311,491,
309,491,
315,491,
325,491,
326,490,
314,488,
310,485,
315,486,
326,486,
326,484,
312,483,
305,480,
312,481,
321,482,
323,477,
308,477,
303,474,
310,474,
317,474,
321,472,
310,470,
301,467,
307,467,
318,468,
320,465,
310,462,
299,460,
304,461,
311,461,
315,460,
307,458,
294,455,
301,454,
307,456,
314,455,
308,452,
295,451,
299,452,
308,451,
313,450,
309,449,
296,446,
297,448,
308,448,
315,447,
310,447,
298,445,
296,445,
305,444,
314,444,
311,445,
299,443,
297,441,
306,443,
311,443,
311,440,
299,441,
294,438,
305,442,
313,442,
312,442,
302,439,
295,441,
303,441,
310,440,
314,442,
306,439,
296,439,
306,441,
312,443,
317,443,
305,441,
298,442,
304,443,
314,443,
317,444,
308,444,
296,442,
305,443,
313,443,
316,443,
309,443,
297,442,
303,444,
312,444,
318,442,
310,443,
300,441,
304,443,
315,442,
319,444,
316,444,
303,442,
308,443,
316,447,
324,448,
322,450,
310,452,
315,454,
324,461,
334,465,
335,472,
324,477,
325,483,
338,491,
350,501,
352,510,
344,519,
344,526,
358,541,
372,550,
377,560,
365,568,
366,577,
380,587,
391,599,
396,608,
388,614,
382,622,
395,629,
406,638,
411,644,
402,647,
396,650,
405,656,
412,660,
416,662,
407,663,
397,663,
403,664,
411,665,
414,665,
403,663,
390,661,
393,660,
402,658,
402,655,
391,652,
379,649,
381,648,
386,647,
390,642,
384,638,
370,634,
371,632,
379,629,
383,626,
375,622,
363,618,
361,614,
364,612,
372,608,
367,604,
352,599,
348,594,
358,590,
365,588,
360,583,
346,578,
339,571,
347,568,
352,564,
351,558,
334,552,
329,545,
335,542,
341,537,
340,532,
326,527,
317,521,
325,517,
330,514,
332,511,
318,505,
308,501,
314,500,
322,497,
325,496,
313,492,
302,490,
308,488,
318,489,
320,488,
311,485,
299,482,
306,483,
312,483,
316,482,
310,480,
301,480,
304,482,
313,484,
319,483,
314,482,
300,480,
305,482,
315,483,
320,484,
317,482,
305,480,
307,481,
317,481,
324,482,
322,481,
308,479,
309,478,
317,480,
324,479,
324,477,
311,474,
306,474,
316,476,
323,474,
323,472,
309,472,
304,468,
313,470,
320,469,
322,468,
306,465,
300,465,
311,465,
317,464,
322,462,
309,460,
302,459,
309,457,
317,457,
322,455,
311,454,
302,454,
308,454,
316,454,
319,452,
310,450,
300,447,
305,447,
310,448,
317,447,
308,446,
296,444,
300,444,
306,446,
313,444,
307,442,
293,441,
299,442,
306,443,
313,442,
308,440,
294,437,
299,438,
305,438,
312,441,
307,438,
294,439,
294,438,
303,441,
308,440,
310,440,
296,438,
294,438,
304,438,
312,440,
311,438,
300,439,
294,437,
306,440,
314,442,
314,441,
301,440,
299,440,
307,440,
313,440,
318,440,
304,440,
298,438,
308,441,
317,442,
323,442,
306,441,
303,441,
311,443,
319,443,
324,442,
315,443,
308,442,
314,444,
322,445,
327,444,
317,444,
308,444,
314,445,
322,443,
326,443,
320,444,
307,444,
313,445,
323,448,
326,450,
323,452,
310,454,
314,458,
321,465,
331,472,
327,475,
314,482,
319,489,
331,497,
340,507,
342,515,
332,523,
335,532,
349,543,
359,554,
364,561,
357,570,
354,577,
370,586,
383,596,
387,604,
379,609,
378,614,
389,622,
399,627,
405,632,
393,634,
390,636,
402,640,
410,642,
413,643,
403,642,
394,641,
402,642,
407,642,
410,641,
399,638,
387,635,
392,633,
400,630,
401,628,
390,626,
376,621,
380,620,
386,617,
387,612,
378,609,
365,605,
363,602,
372,601,
374,597,
367,592,
352,587,
353,586,
360,585,
362,580,
356,575,
341,571,
341,568,
346,565,
351,562,
347,557,
333,551,
332,547,
336,545,
343,541,
338,536,
325,529,
319,525,
328,521,
333,517,
332,513,
319,511,
313,504,
321,504,
326,501,
326,498,
312,494,
308,492,
314,490,
321,489,
323,487,
311,486,
305,482,
307,483,
313,483,
320,483,
307,482,
297,481,
304,482,
311,482,
316,481,
307,481,
297,479,
303,481,
312,483,
316,482,
308,481,
299,481,
301,483,
310,483,
318,483,
312,482,
301,480,
305,480,
310,484,
320,483,
315,481,
299,478,
306,480,
310,481,
320,479,
314,478,
302,476,
303,474,
313,474,
320,474,
317,473,
305,472,
303,470,
314,470,
320,470,
319,466,
308,464,
303,463,
314,464,
320,464,
323,463,
308,461,
304,459,
313,458,
321,459,
324,458,
312,455,
305,454,
314,455,
322,455,
327,454,
316,452,
307,450,
315,450,
321,450,
323,451,
315,449,
304,446,
313,448,
320,449,
322,447,
313,447,
302,446,
308,447,
313,448,
319,446,
313,446,
299,446,
303,446,
310,446,
316,447,
308,445,
295,445,
299,443,
304,447,
314,446,
309,446,
298,444,
297,444,
307,445,
313,447,
311,446,
298,443,
296,444,
304,445,
312,447,
310,444,
299,444,
295,443,
306,446,
315,446,
316,446,
304,446,
299,447,
309,449,
317,449,
321,452,
308,451,
303,455,
311,461,
324,466,
331,471,
320,476,
318,482,
329,491,
338,499,
346,509,
341,514,
334,522,
347,533,
359,542,
367,551,
361,558,
357,566,
367,575,
382,581,
389,587,
388,595,
376,600,
386,605,
396,612,
404,615,
401,618,
389,619,
392,622,
401,624,
405,625,
401,623,
387,621,
386,622,
391,620,
395,619,
393,617,
373,613,
372,610,
379,609,
385,607,
381,603,
365,600,
361,595,
369,593,
374,590,
376,586,
359,581,
353,577,
358,574,
365,571,
367,570,
351,565,
345,561,
351,560,
358,559,
359,553,
345,548,
336,545,
342,544,
349,541,
350,537,
337,533,
328,528,
333,525,
339,523,
341,519,
330,515,
318,510,
321,508,
328,505,
329,502,
322,499,
306,494,
309,494,
315,494,
321,492,
311,489,
298,485,
302,485,
309,486,
315,483,
309,482,
296,479,
297,480,
306,480,
312,480,
312,479,
298,477,
300,477,
310,479,
318,481,
318,480,
304,479,
303,479,
313,480,
320,482,
319,480,
308,478,
304,478,
314,481,
321,482,
324,482,
311,479,
307,480,
317,480,
324,481,
328,480,
313,478,
309,476,
316,479,
324,478,
327,477,
312,475,
308,474,
312,475,
319,472,
324,473,
315,470,
304,467,
310,469,
318,470,
320,466,
313,465,
300,463,
306,464,
316,464,
318,464,
311,461,
298,458,
300,459,
308,461,
314,460,
310,458,
298,455,
298,456,
306,458,
311,458,
309,456,
295,455,
295,455,
305,456,
312,455,
311,454,
298,453,
297,452,
307,454,
314,454,
313,453,
302,453,
297,451,
310,455,
316,453,
319,454,
306,452,
301,453,
308,453,
318,454,
321,453,
309,452,
302,452,
312,453,
320,453,
323,453,
311,450,
304,451,
310,451,
320,452,
323,452,
313,452,
304,453,
314,456,
324,459,
331,462,
323,464,
315,469,
323,477,
333,485,
342,490,
335,499,
326,506,
338,516,
348,524,
357,534,
355,544,
346,551,
355,560,
367,568,
377,578,
379,586,
368,591,
373,598,
388,606,
396,611,
396,618,
383,619,
387,623,
396,626,
405,630,
401,630,
390,631,
388,630,
396,632,
405,632,
402,630,
389,626,
384,627,
391,626,
397,623,
397,622,
382,617,
374,614,
380,614,
386,611,
389,609,
375,604,
366,601,
372,600,
377,596,
378,593,
366,589,
352,585,
358,584,
364,582,
367,579,
355,573,
342,570,
345,568,
351,565,
354,560,
346,558,
333,551,
333,550,
342,545,
343,542,
338,538,
320,533,
322,530,
330,524,
334,523,
327,517,
312,513,
311,509,
319,507,
324,504,
321,503,
307,499,
304,497,
314,496,
319,493,
315,491,
304,489,
299,488,
309,490,
316,490,
317,487,
305,486,
300,484,
308,486,
317,486,
316,487,
306,485,
301,484,
310,486,
320,488,
322,486,
310,486,
304,485,
314,486,
321,487,
326,486,
315,485,
306,485,
313,485,
321,485,
325,486,
315,485,
304,484,
311,485,
320,484,
320,483,
311,482,
299,481,
303,481,
316,480,
320,480,
315,478,
303,474,
307,477,
318,478,
322,476,
320,475,
305,472,
309,472,
317,472,
324,471,
322,469,
308,468,
307,468,
315,466,
322,466,
321,465,
307,464,
304,462,
312,462,
319,462,
321,460,
306,459,
303,456,
314,458,
321,457,
322,457,
309,453,
304,453,
313,453,
322,455,
323,454,
313,449,
304,450,
311,450,
321,452,
325,451,
314,451,
304,449,
312,450,
321,451,
324,450,
316,450,
303,447,
310,451,
318,451,
320,453,
314,455,
302,455,
307,460,
317,464,
324,469,
321,473,
310,478,
317,486,
328,495,
337,504,
335,510,
326,519,
333,529,
347,540,
358,551,
359,560,
351,567,
355,579,
369,587,
381,597,
381,605,
375,609,
377,618,
391,625,
399,632,
402,636,
389,641,
388,643,
400,649,
407,652,
409,655,
397,654,
393,655,
400,656,
408,658,
410,656,
395,654,
388,653,
395,653,
400,653,
403,650,
390,649,
381,646,
386,644,
394,643,
395,642,
384,637,
371,633,
377,631,
384,630,
387,627,
377,624,
365,620,
371,617,
374,614,
380,610,
368,607,
359,602,
360,598,
367,596,
371,592,
363,586,
347,580,
349,577,
356,574,
358,570,
350,563,
334,557,
335,552,
337,549,
342,545,
339,540,
322,531,
319,527,
328,526,
333,521,
329,516,
316,512,
309,506,
319,506,
325,502,
326,500,
308,496,
305,493,
312,492,
320,491,
319,488,
305,488,
299,485,
308,485,
314,487,
318,485,
307,486,
298,483,
305,483,
312,484,
317,484,
306,485,
295,482,
302,483,
311,486,
315,485,
306,484,
295,482,
300,485,
308,484,
313,483,
308,484,
298,482,
303,482,
313,480,
319,483,
315,481,
303,478,
308,479,
315,480,
321,479,
318,477,
307,475,
307,473,
317,474,
322,472,
321,471,
307,469,
308,468,
316,469,
325,468,
323,466,
311,465,
307,463,
316,462,
324,463,
324,460,
307,458,
305,457,
313,457,
320,456,
322,456,
310,453,
301,454,
308,455,
317,455,
316,453,
304,452,
297,449,
306,450,
313,450,
315,449,
306,447,
296,447,
304,448,
313,448,
317,447,
309,446,
296,447,
303,446,
311,446,
314,445,
310,445,
299,444,
302,443,
313,445,
318,444,
312,444,
300,443,
302,444,
311,444,
317,444,
314,444,
300,441,
305,442,
313,443,
322,444,
318,444,
304,443,
305,443,
312,445,
321,447,
320,447,
306,446,
305,450,
317,455,
324,460,
326,462,
314,467,
312,471,
323,482,
334,489,
341,498,
330,504,
328,515,
339,526,
350,537,
358,547,
351,557,
349,568,
363,579,
375,589,
383,599,
373,606,
368,616,
381,624,
392,631,
399,638,
391,644,
385,647,
394,654,
403,658,
408,661,
401,664,
391,666,
398,667,
403,671,
410,671,
404,670,
389,667,
392,667,
401,670,
408,668,
402,666,
387,663,
388,661,
394,660,
400,659,
395,656,
380,652,
380,650,
387,649,
392,646,
387,643,
372,639,
368,634,
376,633,
382,630,
380,626,
369,621,
359,617,
369,614,
375,611,
376,606,
358,599,
355,596,
359,591,
366,587,
367,582,
354,574,
342,569,
347,564,
352,560,
355,554,
343,546,
332,542,
338,539,
341,533,
344,528,
331,523,
319,518,
324,515,
329,510,
332,508,
321,503,
309,498,
313,498,
321,496,
323,492,
315,492,
302,488,
305,488,
312,486,
316,487,
311,486,
297,483,
298,485,
310,485,
316,487,
311,484,
298,483,
301,484,
310,486,
315,486,
313,484,
302,484,
303,484,
312,487,
320,486,
320,486,
311,484,
305,484,
318,485,
324,484,
327,485,
313,483,
307,483,
314,483,
321,482,
325,481,
311,479,
306,478,
314,478,
324,476,
327,476,
313,474,
305,472,
311,471,
319,470,
323,469,
312,466,
301,464,
311,463,
317,464,
321,460,
311,458,
301,456,
306,456,
313,455,
316,452,
308,453,
296,451,
300,451,
310,451,
313,451,
306,448,
293,446,
295,446,
303,447,
310,445,
307,443,
293,442,
295,444,
304,443,
311,445,
309,444,
296,442,
295,441,
305,442,
310,442,
311,441,
299,438,
294,438,
306,439,
314,440,
316,438,
303,439,
300,437,
310,440,
317,440,
321,441,
306,437,
301,438,
312,440,
319,442,
324,441,
312,440,
304,440,
312,440,
319,442,
323,444,
313,444,
303,443,
311,443,
318,445,
323,444,
315,444,
303,442,
311,444,
318,444,
322,443,
317,443,
305,441,
311,442,
320,445,
326,444,
322,441,
311,441,
315,444,
324,445,
332,448,
327,450,
314,452,
316,455,
326,462,
335,467,
332,471,
322,479,
324,485,
336,496,
346,504,
344,515,
337,522,
337,533,
351,546,
362,555,
368,566,
359,574,
359,583,
373,596,
384,606,
390,614,
378,620,
377,629,
389,637,
399,643,
405,649,
394,653,
389,656,
400,662,
410,666,
415,668,
402,669,
394,670,
402,671,
411,672,
413,672,
402,671,
389,669,
395,669,
401,668,
404,665,
394,662,
381,659,
384,657,
390,653,
393,652,
385,648,
372,645,
377,642,
381,639,
385,636,
379,631,
364,627,
365,625,
372,622,
375,617,
372,613,
358,608,
355,603,
362,599,
366,596,
362,590,
348,585,
343,580,
348,575,
355,571,
352,565,
339,560,
331,553,
339,550,
343,544,
341,541,
328,531,
318,528,
324,522,
327,519,
333,516,
318,509,
309,507,
316,505,
325,502,
327,499,
314,495,
305,493,
313,492,
321,490,
323,491,
312,488,
303,486,
307,489,
316,487,
320,486,
311,487,
300,485,
306,486,
314,486,
319,485,
313,486,
300,485,
306,485,
314,487,
319,486,
314,487,
300,484,
305,486,
316,486,
322,486,
318,485,
304,482,
305,482,
315,483,
321,483,
323,482,
308,480,
307,480,
319,479,
326,479,
325,476,
314,476,
310,473,
319,474,
327,473,
328,473,
312,469,
309,468,
318,468,
323,468,
328,467,
314,464,
306,462,
315,462,
319,460,
324,460,
311,458,
302,456,
309,456,
317,456,
319,454,
308,452,
295,450,
302,450,
310,451,
313,448,
304,448,
292,445,
296,445,
303,445,
309,444,
301,443,
289,442,
297,441,
306,443,
311,443,
307,442,
292,440,
299,440,
305,440,
313,441,
311,441,
300,437,
300,439,
311,439,
318,440,
318,440,
303,438,
304,438,
315,439,
323,439,
320,439,
307,437,
304,436,
311,437,
319,438,
320,438,
310,438,
305,436,
313,439,
322,439,
323,438,
309,440,
304,439,
314,440,
323,441,
325,441,
314,440,
307,440,
312,442,
322,443,
326,444,
315,443,
308,442,
315,443,
322,446,
330,444,
318,442,
307,443,
314,444,
321,444,
325,445,
317,445,
305,443,
310,445,
319,445,
323,446,
319,445,
305,445,
307,447,
315,450,
322,450,
319,451,
305,450,
307,454,
319,461,
324,465,
322,469,
312,475,
315,483,
327,490,
337,501,
339,509,
330,516,
330,526,
345,539,
355,551,
363,561,
353,568,
351,575,
366,588,
377,600,
384,607,
375,614,
373,620,
385,627,
399,634,
404,639,
395,644,
388,645,
400,648,
408,653,
413,655,
404,655,
395,655,
402,658,
410,658,
414,658,
404,654,
391,653,
395,654,
404,651,
404,651,
395,648,
383,645,
385,646,
391,643,
394,640,
386,637,
369,632,
373,631,
380,630,
383,628,
379,623,
364,617,
363,617,
370,616,
375,611,
371,608,
356,603,
353,599,
361,597,
365,593,
361,588,
346,582,
341,578,
348,576,
354,571,
350,566,
335,560,
326,553,
333,549,
338,545,
337,541,
322,534,
314,530,
320,526,
326,520,
327,516,
312,510,
303,507,
310,504,
319,503,
320,498,
307,494,
299,493,
306,491,
312,491,
317,489,
309,486,
298,483,
307,486,
315,486,
320,483,
314,482,
303,481,
310,483,
322,484,
328,484,
320,484,
309,483,
313,483,
322,483,
327,484,
320,484,
309,484,
311,486,
321,486,
326,487,
322,485,
310,482,
311,482,
318,483,
324,483,
321,482,
308,479,
307,480,
315,481,
324,480,
322,477,
310,474,
304,474,
315,475,
323,474,
324,474,
310,472,
306,470,
313,470,
320,470,
323,470,
311,468,
304,466,
312,467,
319,464,
320,464,
308,462,
300,460,
308,460,
316,459,
319,458,
309,455,
299,456,
306,456,
311,454,
316,454,
307,451,
296,450,
300,451,
306,452,
313,449,
307,449,
294,447,
297,448,
307,447,
313,448,
308,446,
296,445,
301,444,
308,444,
315,445,
312,444,
298,441,
300,441,
309,442,
315,442,
312,440,
301,441,
299,440,
308,442,
317,442,
315,442,
300,440,
301,440,
310,442,
318,442,
318,441,
303,440,
302,440,
312,442,
319,444,
325,443,
309,442,
305,443,
315,445,
323,446,
326,446,
314,445,
308,445,
318,447,
326,449,
331,449,
317,449,
310,447,
316,448,
328,451,
329,450,
320,450,
310,447,
316,449,
322,451,
327,450,
322,450,
309,449,
313,450,
319,453,
327,453,
319,453,
304,452,
308,455,
314,457,
324,461,
320,464,
307,466,
312,471,
322,478,
330,484,
333,491,
321,497,
327,505,
338,517,
347,525,
348,535,
339,543,
341,552,
356,561,
368,570,
371,579,
362,587,
361,592,
374,602,
386,608,
389,616,
377,620,
377,625,
384,630,
394,636,
399,638,
386,640,
381,640,
389,643,
398,643,
403,644,
393,642,
383,641,
391,641,
396,641,
399,637,
388,635,
376,632,
378,630,
386,628,
388,626,
379,622,
367,617,
370,616,
377,614,
381,610,
372,606,
357,601,
362,600,
366,598,
373,595,
367,591,
352,585,
351,584,
358,580,
360,579,
356,576,
340,569,
336,566,
344,564,
353,562,
347,555,
332,550,
328,546,
338,542,
340,539,
340,533,
326,528,
319,522,
328,521,
336,518,
335,515,
321,511,
315,507,
322,504,
328,503,
329,500,
315,496,
305,493,
313,493,
319,492,
323,491,
312,487,
304,487,
309,487,
316,487,
321,487,
313,487,
302,485,
310,486,
318,487,
323,486,
315,484,
305,486,
309,486,
320,485,
324,486,
319,487,
306,485,
309,486,
319,486,
326,486,
321,485,
303,483,
308,484,
314,484,
323,485,
320,482,
307,482,
308,481,
317,481,
324,481,
321,480,
310,478,
305,476,
315,475,
321,476,
322,475,
309,474,
304,471,
315,473,
322,472,
326,471,
311,468,
307,468,
316,468,
323,467,
325,466,
314,462,
305,462,
316,464,
323,462,
327,462,
316,460,
307,458,
311,458,
323,458,
325,457,
316,454,
302,453,
311,454,
318,455,
321,454,
314,454,
303,451,
309,454,
317,453,
321,450,
314,452,
302,450,
308,451,
317,453,
320,451,
317,451,
302,448,
307,449,
314,450,
319,451,
316,451,
302,450,
304,449,
310,450,
316,451,
315,451,
302,449,
301,449,
310,451,
317,451,
316,450,
305,449,
299,448,
309,450,
316,450,
318,451,
306,447,
303,449,
312,450,
321,451,
321,450,
309,450,
303,450,
312,453,
322,453,
324,455,
314,456,
308,458,
317,464,
329,468,
332,472,
326,477,
316,482,
327,491,
337,500,
344,508,
335,514,
331,523,
338,534,
350,543,
356,552,
354,561,
345,570,
354,577,
368,587,
376,595,
375,601,
366,607,
371,616,
386,619,
392,627,
389,631,
378,631,
380,636,
390,640,
400,641,
398,643,
383,642,
384,641,
392,641,
399,642,
396,641,
382,638,
376,634,
384,634,
390,632,
390,629,
376,625,
369,620,
373,620,
380,617,
380,613,
365,608,
358,607,
364,604,
371,603,
373,598,
358,593,
349,592,
356,589,
362,586,
366,582,
353,578,
342,574,
348,572,
355,568,
357,565,
347,560,
334,554,
337,552,
346,549,
346,544,
339,540,
322,534,
326,531,
329,529,
335,525,
323,520,
309,515,
310,513,
316,510,
319,510,
312,508,
299,505,
299,508,
307,520,
315,536,
310,550,
296,564,
295,572,
304,578,
313,584,
311,583,
300,586,
298,588,
308,589,
318,584,
316,579,
306,576,
300,569,
312,566,
319,559,
324,555,
309,546,
305,537,
314,528,
321,520,
325,510,
315,502,
307,494,
315,494,
325,494,
326,489,
315,487,
308,482,
314,475,
323,472,
327,468,
318,464,
308,461,
312,461,
322,460,
326,456,
318,455,
307,453,
310,451,
319,446,
321,441,
312,432,
299,422,
305,417,
311,411,
317,410,
312,406,
300,403,
301,402,
310,403,
317,406,
315,413,
298,417,
301,423,
309,428,
316,431,
314,430,
298,428,
300,428,
309,433,
316,441,
314,444,
300,451,
297,457,
307,465,
314,470,
315,469,
303,463,
299,461,
304,460,
315,460,
319,462,
307,462,
299,456,
309,453,
315,446,
319,442,
308,435,
301,431,
307,427,
316,424,
321,421,
311,418,
300,416,
308,417,
315,419,
320,419,
314,419,
304,422,
307,430,
316,433,
324,432,
318,432,
307,429,
312,429,
321,430,
327,430,
324,429,
311,426,
315,428,
325,430,
333,432,
329,438,
316,444,
318,445,
329,447,
334,447,
332,447,
319,447,
317,447,
326,450,
332,451,
331,452,
319,453,
313,455,
324,462,
332,467,
334,474,
319,479,
317,487,
326,495,
336,504,
340,514,
329,522,
325,532,
336,544,
349,554,
356,564,
348,573,
344,583,
355,592,
368,603,
375,611,
369,619,
361,624,
374,633,
385,637,
393,643,
388,649,
377,650,
386,655,
395,660,
401,659,
396,662,
385,663,
389,664,
398,663,
404,665,
395,664,
382,662,
386,665,
390,670,
393,673,
388,667,
373,657,
371,650,
377,643,
383,636,
380,628,
361,619,
361,611,
367,607,
374,601,
370,593,
357,587,
350,581,
360,579,
368,575,
366,570,
350,566,
345,561,
349,559,
358,556,
359,552,
346,548,
338,544,
347,541,
351,538,
354,536,
339,530,
332,528,
338,525,
342,522,
347,518,
331,513,
321,511,
326,509,
335,507,
337,504,
327,503,
315,499,
317,496,
324,495,
328,494,
321,494,
307,490,
309,491,
319,493,
323,492,
317,492,
303,489,
307,492,
314,493,
321,493,
316,492,
304,494,
306,493,
315,495,
322,496,
320,494,
307,494,
306,493,
313,495,
321,496,
320,494,
307,494,
307,493,
314,494,
322,495,
322,494,
310,492,
305,490,
315,491,
320,491,
324,491,
307,488,
305,487,
314,487,
323,485,
324,485,
314,482,
306,480,
314,481,
321,479,
323,478,
313,475,
302,473,
309,473,
317,472,
320,471,
312,470,
301,468,
305,468,
313,468,
315,467,
308,464,
297,464,
302,462,
310,462,
316,463,
311,461,
298,458,
303,460,
313,460,
318,461,
314,460,
300,458,
303,458,
312,459,
317,460,
315,462,
301,460,
302,460,
306,460,
316,462,
315,464,
300,463,
301,470,
309,475,
316,474,
317,469,
304,467,
300,464,
311,467,
318,468,
322,470,
309,470,
304,472,
312,470,
323,468,
324,466,
313,461,
307,458,
314,457,
325,455,
326,455,
312,450,
307,447,
314,447,
323,447,
325,445,
317,443,
308,442,
313,442,
323,443,
326,442,
320,442,
310,444,
315,449,
324,451,
329,448,
322,444,
310,441,
315,438,
324,438,
331,439,
328,438,
315,438,
319,443,
327,448,
334,454,
332,461,
320,465,
321,475,
333,486,
342,496,
344,506,
334,515,
336,526,
348,539,
361,550,
363,559,
356,571,
356,577,
371,589,
381,599,
386,607,
377,611,
376,620,
386,627,
396,634,
399,637,
388,640,
384,643,
391,647,
400,651,
404,651,
389,653,
385,653,
388,652,
396,651,
397,649,
384,647,
374,643,
380,641,
386,640,
389,636,
379,633,
368,628,
371,627,
378,624,
380,618,
372,615,
356,609,
358,607,
364,605,
371,601,
363,596,
347,591,
348,588,
355,587,
359,582,
353,579,
337,572,
338,570,
346,568,
350,563,
349,558,
330,553,
329,549,
337,545,
340,542,
338,536,
325,531,
318,526,
327,526,
334,521,
333,518,
318,511,
313,509,
319,506,
326,504,
327,502,
314,499,
308,496,
314,495,
322,494,
324,492,
312,490,
304,490,
310,490,
319,490,
323,490,
312,487,
302,487,
308,488,
318,490,
322,489,
315,488,
302,487,
311,490,
320,490,
324,488,
318,490,
305,488,
312,488,
321,488,
326,489,
319,489,
307,487,
313,488,
318,489,
325,489,
322,487,
309,485,
310,485,
318,484,
325,484,
322,483,
309,481,
307,480,
316,480,
324,479,
321,476,
308,476,
303,473,
313,473,
318,472,
319,470,
308,468,
304,465,
310,467,
320,467,
324,466,
309,461,
303,461,
313,461,
318,460,
325,460,
311,457,
304,455,
308,456,
318,457,
322,455,
311,453,
302,454,
310,454,
316,453,
321,455,
311,451,
300,452,
303,451,
314,452,
317,452,
311,450,
298,448,
302,451,
311,451,
317,451,
310,452,
297,450,
303,453,
310,455,
318,454,
312,453,
300,452,
303,452,
310,452,
319,452,
318,454,
301,451,
304,451,
313,453,
321,452,
318,453,
307,450,
303,452,
314,455,
321,457,
320,460,
310,461,
305,461,
314,469,
322,473,
322,474,
312,473,
306,477,
315,479,
324,482,
329,485,
317,488,
311,493,
321,501,
331,509,
338,517,
327,520,
320,522,
331,527,
340,528,
348,533,
342,535,
333,538,
346,543,
354,548,
362,554,
359,559,
351,563,
360,571,
371,578,
381,580,
378,584,
367,586,
375,591,
385,597,
392,601,
387,603,
378,604,
381,608,
390,611,
396,613,
395,615,
381,613,
381,615,
387,618,
396,617,
392,617,
379,615,
375,615,
383,615,
389,616,
384,612,
371,611,
365,607,
373,608,
378,606,
378,606,
364,602,
357,602,
362,599,
369,598,
371,595,
356,592,
347,588,
355,586,
359,581,
361,579,
346,574,
335,570,
338,566,
344,563,
347,560,
337,555,
323,549,
331,546,
332,542,
336,538,
327,534,
314,528,
318,526,
324,524,
330,519,
322,515,
309,511,
313,508,
320,508,
325,504,
320,501,
306,497,
311,496,
319,496,
324,494,
321,491,
309,491,
309,491,
318,491,
324,490,
323,489,
309,488,
307,489,
316,491,
320,490,
321,488,
310,490,
305,490,
315,492,
320,494,
324,495,
307,494,
303,495,
312,497,
319,499,
320,501,
309,497,
302,500,
311,503,
317,505,
322,507,
311,509,
302,510,
308,518,
317,522,
320,528,
311,528,
301,522,
310,515,
319,507,
323,496,
315,487,
304,478,
312,470,
320,462,
323,453,
317,447,
304,439,
308,437,
318,432,
322,429,
317,425,
304,421,
307,419,
317,419,
323,417,
319,416,
304,415,
309,415,
316,418,
321,418,
321,420,
307,418,
307,421,
317,423,
323,426,
319,427,
310,429,
304,430,
316,434,
325,437,
325,439,
313,440,
309,442,
318,444,
325,446,
329,448,
317,447,
309,447,
316,450,
324,452,
326,453,
316,453,
306,453,
311,456,
321,457,
325,457,
313,457,
303,457,
310,460,
320,461,
323,462,
316,462,
305,464,
311,466,
322,472,
326,473,
322,478,
311,480,
317,488,
329,495,
338,503,
333,509,
326,516,
331,526,
343,537,
353,547,
354,555,
342,561,
351,572,
364,581,
373,590,
377,599,
365,604,
370,611,
382,620,
393,625,
393,630,
382,634,
383,638,
393,643,
401,646,
404,650,
390,648,
386,649,
392,653,
403,653,
404,653,
393,651,
384,650,
392,652,
399,650,
398,646,
383,644,
376,641,
379,639,
386,636,
386,633,
373,629,
361,624,
365,624,
369,620,
371,617,
361,613,
351,609,
354,607,
360,604,
362,599,
356,596,
344,592,
344,590,
351,588,
355,582,
347,577,
333,571,
334,569,
342,565,
346,561,
339,555,
324,552,
324,548,
333,545,
336,540,
334,536,
316,529,
315,526,
320,523,
327,520,
324,515,
309,510,
305,508,
314,506,
319,506,
319,502,
304,500,
300,498,
310,506,
318,507,
318,504,
306,499,
301,496,
310,490,
318,488,
320,484,
310,481,
303,476,
310,476,
322,475,
325,473,
315,470,
308,470,
315,469,
325,469,
330,469,
318,468,
310,466,
316,468,
325,469,
328,469,
322,469,
310,469,
315,471,
322,471,
327,473,
319,471,
306,471,
312,473,
317,474,
322,475,
319,474,
303,472,
307,475,
314,475,
320,475,
318,474,
303,473,
303,475,
312,475,
321,477,
317,478,
304,475,
302,476,
310,477,
314,480,
313,481,
301,480,
297,480,
307,485,
315,487,
314,492,
304,489,
301,489,
310,489,
319,488,
321,487,
310,485,
304,486,
312,486,
320,483,
321,477,
312,470,
304,468,
310,463,
320,461,
324,456,
314,450,
304,444,
311,441,
319,436,
322,434,
316,430,
303,426,
308,425,
317,423,
322,422,
317,420,
304,419,
308,420,
316,424,
322,421,
318,422,
304,419,
306,422,
316,424,
321,425,
319,426,
305,425,
305,428,
314,430,
323,433,
320,435,
307,435,
309,436,
317,440,
326,443,
326,444,
316,448,
311,451,
323,459,
332,464,
334,472,
321,476,
319,485,
327,496,
334,507,
342,515,
332,525,
326,537,
336,552,
349,566,
356,584,
349,601,
345,611,
357,615,
367,619,
378,620,
372,620,
366,624,
377,625,
386,628,
394,629,
390,629,
381,629,
391,632,
398,633,
404,631,
398,631,
384,632,
390,632,
397,634,
403,633,
397,632,
385,629,
389,630,
395,630,
400,629,
397,627,
381,624,
384,624,
391,622,
396,623,
391,620,
376,619,
375,618,
381,617,
387,616,
385,613,
372,610,
366,609,
374,609,
380,608,
381,604,
362,601,
358,598,
364,597,
369,594,
368,592,
354,587,
345,583,
352,580,
356,577,
359,572,
345,567,
333,562,
340,560,
345,555,
346,552,
333,546,
320,541,
325,538,
331,534,
332,530,
321,525,
309,521,
313,517,
320,514,
323,511,
316,508,
303,505,
305,504,
315,504,
319,502,
313,499,
302,496,
307,497,
313,498,
320,497,
316,496,
304,494,
305,493,
313,493,
321,495,
317,494,
305,493,
305,493,
315,494,
322,495,
320,497,
308,496,
304,496,
315,500,
324,500,
327,501,
313,500,
310,505,
320,513,
327,512,
328,512,
317,509,
308,506,
317,502,
323,497,
325,494,
313,488,
305,484,
313,479,
320,477,
323,473,
312,468,
302,466,
309,462,
318,461,
321,458,
312,456,
302,455,
309,455,
319,455,
322,455,
317,453,
305,451,
309,451,
321,452,
324,455,
318,457,
304,462,
307,469,
317,472,
321,470,
316,466,
301,460,
305,457,
313,453,
319,450,
314,447,
300,443,
301,439,
308,439,
315,438,
313,436,
299,432,
296,431,
304,432,
310,430,
310,429,
297,427,
292,426,
301,429,
311,430,
314,430,
300,428,
293,428,
303,430,
313,431,
318,432,
304,432,
298,431,
308,435,
317,438,
323,439,
311,439,
304,441,
314,446,
322,448,
327,451,
320,454,
309,459,
319,466,
327,475,
330,485,
325,496,
313,502,
321,512,
332,522,
340,531,
337,546,
327,557,
335,568,
346,578,
356,586,
355,595,
346,602,
352,611,
366,624,
374,634,
375,645,
368,654,
371,664,
384,676,
393,679,
394,675,
383,671,
385,663,
396,658,
403,653,
401,646,
393,638,
386,632,
397,629,
404,624,
405,619,
390,614,
386,609,
393,608,
400,605,
398,602,
384,599,
376,595,
385,596,
388,594,
391,594,
377,590,
369,590,
373,591,
378,591,
380,589,
368,589,
355,587,
363,587,
369,587,
371,585,
360,584,
351,583,
354,583,
362,583,
366,578,
358,577,
342,574,
344,571,
350,570,
354,566,
346,563,
331,557,
331,553,
336,551,
341,547,
336,541,
323,536,
319,533,
328,531,
332,527,
328,523,
311,519,
308,514,
317,513,
322,510,
319,505,
309,502,
302,501,
312,502,
319,500,
320,498,
305,497,
302,496,
311,497,
316,496,
319,495,
308,492,
300,493,
308,493,
317,493,
322,492,
311,490,
306,491,
314,493,
322,494,
326,495,
313,493,
306,493,
313,493,
320,494,
324,495,
317,496,
305,495,
310,495,
319,498,
323,497,
318,502,
305,507,
309,517,
319,522,
323,528,
318,534,
303,533,
306,526,
315,517,
319,508,
315,496,
304,488,
304,478,
314,472,
318,464,
319,457,
303,449,
303,444,
313,440,
318,436,
316,429,
303,425,
301,420,
310,419,
318,420,
317,416,
304,416,
301,411,
308,414,
315,414,
316,415,
304,414,
298,414,
308,418,
316,420,
317,420,
302,421,
298,423,
306,426,
314,430,
318,435,
308,435,
297,438,
302,443,
313,447,
317,448,
310,450,
298,450,
304,454,
315,457,
316,458,
313,461,
302,461,
308,463,
318,465,
323,466,
316,468,
305,468,
309,467,
318,472,
327,471,
320,471,
308,470,
311,473,
322,475,
331,479,
324,479,
314,482,
318,486,
325,491,
335,497,
334,505,
323,512,
323,522,
336,536,
347,551,
350,567,
340,583,
340,601,
354,619,
365,629,
371,637,
362,643,
363,650,
371,659,
385,670,
390,681,
380,687,
375,692,
386,696,
395,699,
400,697,
391,692,
382,683,
390,676,
399,669,
402,660,
394,651,
382,640,
389,632,
398,623,
399,612,
391,602,
379,593,
380,583,
387,577,
392,569,
381,562,
370,554,
372,550,
379,548,
384,545,
378,542,
363,537,
363,536,
371,535,
376,534,
371,533,
358,532,
357,531,
365,533,
369,531,
366,530,
351,529,
347,529,
353,531,
358,531,
356,531,
343,528,
335,526,
343,529,
347,528,
347,527,
331,526,
324,524,
330,524,
336,525,
335,523,
324,520,
314,518,
321,520,
327,521,
330,520,
318,520,
309,523,
314,525,
322,528,
326,531,
314,534,
305,536,
313,544,
320,552,
322,561,
314,562,
302,561,
310,564,
316,565,
321,568,
314,691,
300,860,
305,891,
315,876,
319,841,
313,797,
300,755,
303,719,
311,680,
317,641,
314,601,
301,565,
302,535,
311,512,
317,490,
317,471,
302,449,
302,433,
313,417,
320,401,
319,385,
307,369,
300,357,
313,354,
321,349,
320,346,
303,348,
304,346,
311,345,
320,345,
321,346,
307,347,
302,348,
312,355,
319,359,
322,364,
311,369,
303,374,
309,381,
318,389,
322,395,
313,400,
302,405,
309,411,
316,418,
321,422,
310,427,
299,432,
305,435,
314,438,
316,440,
311,448,
297,441,
303,441,
311,446,
315,443,
309,433,
295,421,
302,411,
309,401,
314,390,
311,381,
298,372,
300,365,
308,362,
317,357,
315,354,
300,353,
302,351,
313,353,
320,354,
321,356,
308,359,
306,363,
318,371,
325,378,
330,387,
318,394,
315,406,
327,419,
337,430,
341,442,
334,455,
329,468,
342,483,
355,499,
362,514,
356,528,
352,543,
365,559,
376,574,
383,588,
377,600,
372,612,
382,625,
392,635,
399,644,
394,651,
383,655,
389,664,
398,670,
402,673,
397,677,
386,677,
390,680,
394,681,
401,681,
393,679,
381,676,
386,676,
396,675,
400,672,
395,667,
382,664,
383,659,
389,656,
394,654,
393,651,
376,644,
374,641,
382,639,
385,634,
382,629,
369,623,
363,619,
372,616,
377,614,
375,608,
359,605,
354,598,
361,596,
365,593,
367,587,
351,580,
344,574,
348,570,
354,564,
354,560,
341,553,
330,545,
336,542,
342,538,
343,531,
332,524,
319,519,
326,516,
332,511,
333,508,
323,501,
312,495,
316,493,
322,491,
323,489,
316,486,
303,485,
306,483,
313,482,
318,481,
311,480,
298,478,
302,478,
309,479,
319,482,
315,481,
302,478,
304,480,
315,482,
319,483,
319,483,
306,483,
309,485,
317,486,
326,487,
324,486,
312,485,
308,485,
320,488,
326,488,
327,487,
313,485,
309,483,
318,483,
326,485,
326,483,
312,481,
306,480,
314,480,
320,479,
321,477,
310,473,
301,473,
308,474,
314,472,
318,473,
308,468,
297,466,
307,466,
315,465,
318,463,
310,461,
300,458,
306,458,
315,458,
319,456,
312,455,
300,452,
305,452,
312,454,
319,451,
313,451,
300,448,
304,449,
314,449,
318,448,
315,448,
302,446,
305,446,
313,447,
320,447,
317,447,
304,446,
304,445,
313,446,
320,447,
317,447,
305,445,
301,444,
311,445,
319,445,
318,444,
304,443,
297,441,
307,443,
315,444,
316,443,
299,444,
297,443,
306,443,
312,442,
316,444,
301,442,
296,441,
304,441,
313,443,
316,443,
307,441,
299,441,
307,441,
318,441,
321,442,
312,440,
302,439,
307,441,
315,442,
322,445,
316,446,
308,447,
315,452,
322,458,
329,461,
324,467,
313,473,
320,482,
330,492,
339,503,
338,512,
329,520,
338,533,
349,547,
361,558,
363,571,
353,580,
359,591,
370,605,
383,616,
384,626,
375,634,
376,642,
389,651,
399,659,
400,666,
391,669,
388,673,
400,681,
406,683,
411,688,
397,687,
397,690,
403,690,
410,691,
414,690,
402,688,
393,686,
400,684,
409,684,
412,682,
399,677,
392,674,
395,674,
403,671,
405,666,
392,663,
381,660,
388,657,
393,654,
395,648,
383,644,
371,640,
374,637,
383,632,
382,627,
373,624,
359,620,
362,614,
368,612,
371,606,
364,600,
347,593,
348,588,
354,584,
357,579,
351,572,
336,565,
333,559,
342,556,
344,549,
342,544,
325,537,
324,531,
329,527,
334,524,
332,516,
320,511,
314,507,
320,506,
328,503,
330,499,
312,494,
309,492,
317,492,
324,490,
325,489,
311,485,
307,485,
315,484,
322,486,
325,485,
313,483,
304,483,
313,485,
320,485,
324,485,
315,483,
305,482,
311,483,
321,486,
324,485,
315,485,
303,483,
311,485,
320,484,
322,485,
318,484,
305,481,
311,482,
319,483,
322,482,
316,480,
302,477,
304,476,
311,477,
318,476,
313,474,
301,471,
300,471,
312,470,
316,468,
315,467,
300,464,
300,463,
309,463,
315,461,
315,460,
300,456,
296,454,
305,456,
313,455,
311,453,
301,451,
295,450,
302,451,
311,452,
314,450,
300,446,
296,446,
305,448,
313,447,
316,445,
307,444,
300,441,
309,443,
315,442,
323,442,
310,438,
302,439,
307,439,
315,440,
319,439,
310,438,
300,436,
305,438,
311,440,
316,439,
306,438,
297,437,
302,437,
310,440,
316,437,
310,438,
297,437,
302,436,
309,438,
316,438,
312,436,
300,436,
302,437,
310,439,
318,439,
317,439,
301,437,
303,438,
311,440,
319,441,
316,439,
302,437,
300,438,
310,439,
316,440,
317,439,
306,437,
300,436,
311,437,
318,440,
321,440,
308,438,
303,440,
311,443,
319,446,
323,446,
312,447,
307,451,
316,458,
324,464,
330,469,
321,475,
317,483,
325,491,
335,501,
344,512,
339,523,
336,532,
349,547,
361,557,
372,569,
370,578,
364,589,
373,601,
386,614,
396,623,
393,633,
383,639,
390,649,
400,659,
409,664,
405,669,
395,672,
400,677,
407,680,
415,684,
410,686,
398,686,
397,687,
405,687,
413,687,
409,685,
393,683,
391,682,
399,681,
402,678,
402,675,
387,671,
380,668,
388,666,
394,664,
395,661,
382,655,
373,652,
381,649,
385,647,
386,643,
372,637,
362,633,
370,630,
376,629,
378,623,
366,616,
358,612,
364,609,
371,605,
372,600,
360,592,
346,587,
351,583,
357,577,
360,571,
350,565,
337,558,
339,552,
348,548,
350,540,
342,534,
326,528,
330,524,
335,520,
341,516,
334,511,
318,505,
318,502,
326,500,
330,499,
324,496,
311,491,
311,490,
317,489,
323,489,
318,488,
307,486,
304,485,
313,485,
321,485,
317,483,
307,482,
301,481,
311,483,
320,485,
321,485,
307,483,
302,484,
310,487,
318,486,
320,487,
305,488,
300,488,
309,491,
317,491,
321,491,
310,490,
302,489,
308,490,
317,489,
322,488,
310,486,
300,484,
307,485,
317,508,
319,556,
311,607,
300,655,
307,702,
313,741,
319,771,
313,797,
301,816,
306,831,
316,843,
319,848,
314,847,
299,842,
303,837,
311,829,
317,816,
311,800,
301,784,
300,766,
310,747,
315,726,
313,705,
298,681,
298,657,
308,637,
315,615,
314,591,
301,570,
296,548,
306,528,
312,511,
315,493,
300,478,
298,459,
307,447,
314,434,
316,422,
305,410,
296,402,
304,393,
315,387,
318,380,
306,375,
299,368,
308,366,
316,365,
319,362,
311,359,
301,360,
308,363,
318,363,
321,364,
313,366,
302,367,
310,371,
317,373,
321,377,
315,380,
304,382,
308,389,
320,391,
323,395,
318,399,
305,401,
310,405,
317,409,
323,411,
319,414,
305,415,
307,419,
314,423,
322,425,
319,427,
307,428,
306,430,
311,434,
321,437,
317,439,
306,441,
303,444,
314,450,
322,454,
323,459,
310,463,
309,470,
321,480,
330,490,
335,499,
326,508,
322,518,
334,529,
344,543,
352,554,
344,564,
342,576,
356,590,
367,602,
376,612,
369,621,
363,632,
375,643,
387,652,
393,661,
388,667,
380,671,
389,680,
399,687,
403,690,
398,736,
387,897,
391,948,
401,965,
405,966,
399,955,
385,942,
389,927,
399,914,
403,899,
396,882,
380,862,
380,837,
388,811,
392,788,
390,762,
375,737,
373,719,
381,704,
384,689,
383,674,
368,658,
364,647,
371,636,
376,624,
374,610,
363,597,
355,572,
362,550,
367,527,
367,502,
352,478,
345,459,
350,443,
357,429,
357,415,
342,401,
333,390,
339,384,
343,377,
345,372,
330,370,
321,367,
326,367,
331,367,
333,370,
319,371,
308,373,
313,378,
319,384,
322,388,
314,394,
302,399,
305,407,
309,414,
317,420,
311,427,
299,432,
304,440,
316,446,
321,453,
315,458,
301,463,
303,469,
312,475,
320,480,
316,484,
304,485,
308,489,
314,494,
326,496,
320,498,
307,496,
306,500,
316,501,
322,503,
321,502,
309,499,
302,497,
313,497,
320,497,
322,497,
306,494,
302,491,
311,489,
318,488,
321,483,
309,480,
301,476,
308,476,
320,475,
322,471,
309,467,
306,465,
311,462,
319,461,
323,459,
312,452,
302,449,
309,449,
317,449,
320,446,
310,443,
300,440,
305,439,
314,439,
318,436,
312,436,
301,432,
304,432,
314,433,
318,431,
314,430,
300,427,
302,430,
312,429,
320,429,
317,428,
302,426,
304,427,
312,428,
319,428,
320,428,
304,426,
305,426,
315,426,
320,427,
319,426,
308,423,
301,424,
311,427,
322,426,
323,427,
307,427,
305,426,
314,427,
323,427,
321,427,
310,426,
302,426,
311,427,
318,428,
321,428,
309,427,
302,427,
308,429,
316,430,
323,430,
310,428,
300,426,
307,431,
313,433,
320,432,
312,432,
302,436,
310,439,
319,443,
322,446,
318,452,
305,454,
312,463,
320,472,
331,481,
324,490,
315,500,
323,512,
332,524,
344,537,
347,550,
337,560,
341,580,
357,601,
366,626,
369,648,
359,670,
363,690,
375,708,
385,722,
386,729,
377,732,
375,730,
387,731,
395,729,
399,726,
386,722,
382,718,
390,719,
399,723,
400,722,
386,712,
379,702,
387,691,
396,682,
397,670,
383,657,
374,644,
379,635,
387,626,
389,616,
377,605,
366,595,
372,588,
375,582,
379,575,
369,569,
357,562,
360,558,
366,555,
367,550,
360,545,
346,541,
350,537,
356,535,
359,533,
350,529,
336,525,
337,521,
340,520,
347,515,
338,511,
323,506,
322,503,
328,502,
333,500,
327,496,
313,492,
311,488,
319,487,
326,485,
322,482,
307,480,
301,477,
311,477,
318,478,
318,475,
306,474,
303,470,
312,474,
320,474,
322,474,
310,473,
304,473,
315,476,
323,477,
328,477,
315,477,
308,476,
316,476,
324,479,
329,479,
318,479,
308,478,
314,480,
322,481,
325,481,
316,481,
304,480,
312,481,
317,480,
321,478,
316,477,
304,475,
308,475,
314,474,
322,473,
313,471,
302,468,
306,469,
311,469,
319,466,
315,464,
301,462,
304,461,
313,460,
318,459,
317,458,
300,454,
300,454,
308,454,
317,453,
315,450,
301,448,
299,447,
309,448,
317,446,
318,444,
303,441,
299,439,
308,442,
316,441,
319,439,
305,436,
300,437,
309,437,
318,436,
320,434,
307,433,
302,432,
307,432,
312,432,
320,432,
305,432,
297,430,
305,431,
314,432,
317,431,
309,430,
299,428,
304,430,
313,430,
318,430,
310,429,
298,428,
302,428,
311,428,
319,428,
311,426,
300,425,
306,426,
315,426,
323,427,
317,427,
304,425,
309,428,
316,430,
324,432,
323,433,
309,433,
309,436,
320,441,
327,446,
328,450,
315,455,
314,463,
326,473,
336,481,
337,489,
328,499,
326,508,
339,522,
350,535,
357,547,
345,557,
348,569,
361,583,
373,593,
378,606,
373,614,
367,625,
378,634,
391,642,
397,650,
385,657,
382,663,
390,668,
398,673,
403,676,
391,676,
381,677,
385,678,
397,680,
400,679,
391,678,
381,675,
386,674,
390,676,
396,669,
388,665,
375,662,
379,660,
385,660,
391,655,
385,651,
369,644,
370,641,
377,639,
382,635,
375,630,
363,625,
361,620,
367,617,
371,613,
367,607,
349,600,
349,596,
353,591,
357,586,
355,579,
339,574,
331,566,
341,562,
346,558,
346,551,
332,541,
327,537,
330,532,
336,526,
337,520,
322,512,
313,507,
321,504,
326,499,
327,495,
314,490,
305,486,
310,484,
315,480,
322,478,
308,475,
295,472,
304,471,
311,472,
316,469,
307,469,
296,466,
303,467,
311,468,
317,467,
311,467,
299,466,
303,466,
315,468,
321,468,
317,469,
306,468,
307,470,
318,471,
323,473,
320,471,
306,469,
309,470,
317,472,
325,471,
324,472,
311,469,
310,469,
321,470,
328,469,
327,468,
316,466,
310,465,
320,466,
328,465,
328,464,
316,461,
311,459,
316,458,
325,458,
327,457,
310,454,
302,452,
307,454,
316,453,
317,450,
306,447,
298,446,
302,445,
312,445,
316,443,
305,441,
293,439,
301,440,
310,439,
314,438,
306,436,
297,434,
303,434,
310,433,
315,432,
310,432,
296,429,
302,430,
309,431,
317,431,
313,428,
300,428,
304,428,
313,427,
321,429,
316,429,
305,426,
306,426,
315,428,
322,428,
319,428,
304,426,
304,425,
314,427,
320,427,
319,426,
306,426,
301,426,
310,427,
316,427,
318,428,
303,427,
299,426,
307,427,
316,427,
319,427,
304,425,
300,425,
311,427,
319,427,
321,426,
309,426,
305,425,
312,426,
321,429,
325,429,
317,428,
309,431,
316,433,
325,435,
329,439,
322,442,
312,445,
318,452,
329,461,
334,467,
330,476,
320,485,
330,497,
338,508,
347,519,
343,531,
335,541,
341,555,
354,569,
363,583,
364,593,
356,605,
363,614,
374,627,
385,637,
387,648,
374,654,
377,661,
389,670,
400,676,
398,679,
390,682,
385,685,
395,691,
405,692,
406,693,
392,694,
388,690,
397,692,
405,690,
405,689,
393,685,
384,683,
389,682,
396,679,
398,676,
385,669,
377,668,
382,665,
387,662,
390,658,
377,653,
366,649,
371,645,
375,642,
378,637,
369,633,
357,627,
361,624,
366,619,
367,615,
358,610,
344,603,
348,598,
354,594,
358,588,
348,581,
334,574,
335,568,
341,563,
345,556,
339,551,
323,542,
323,537,
328,530,
332,527,
329,520,
313,512,
311,507,
320,502,
325,500,
319,496,
307,491,
304,488,
315,487,
321,485,
320,481,
309,479,
303,475,
312,477,
318,475,
321,477,
307,472,
300,473,
307,474,
317,473,
320,475,
308,473,
302,472,
309,474,
318,474,
322,476,
310,473,
301,474,
308,474,
316,477,
320,476,
311,475,
301,475,
307,476,
318,476,
320,475,
315,474,
305,472,
308,472,
318,472,
325,472,
319,470,
304,467,
311,468,
317,468,
325,467,
321,465,
309,461,
311,462,
319,461,
325,461,
321,458,
309,457,
308,455,
317,455,
325,454,
321,451,
307,449,
308,450,
316,449,
324,449,
322,447,
309,445,
303,442,
313,445,
319,442,
321,443,
307,438,
303,440,
310,440,
317,439,
319,436,
308,434,
300,434,
306,438,
316,434,
319,436,
308,435,
300,433,
308,434,
316,435,
323,433,
312,433,
300,431,
308,432,
318,433,
321,432,
313,431,
303,430,
307,430,
317,431,
319,430,
314,428,
300,426,
304,429,
312,429,
317,429,
311,428,
299,426,
302,428,
311,430,
316,432,
314,431,
300,431,
300,431,
310,435,
316,437,
317,441,
304,444,
303,450,
314,457,
323,465,
326,473,
315,482,
313,489,
327,502,
340,514,
343,526,
334,536,
333,548,
347,562,
361,575,
368,586,
360,595,
356,604,
369,616,
381,627,
389,636,
383,643,
376,650,
385,659,
396,665,
402,670,
393,673,
384,674,
393,679,
404,681,
408,682,
399,681,
389,680,
394,679,
403,680,
408,677,
401,674,
388,672,
391,669,
398,668,
404,665,
395,660,
380,656,
382,653,
388,652,
393,647,
385,643,
373,637,
370,633,
377,631,
380,627,
376,623,
359,615,
354,611,
362,608,
368,604,
362,598,
349,593,
341,587,
351,583,
355,577,
354,572,
341,564,
333,558,
340,554,
342,547,
344,541,
329,534,
323,527,
327,524,
333,519,
336,516,
321,508,
313,504,
315,501,
321,498,
323,495,
312,491,
299,488,
308,487,
314,487,
320,484,
308,484,
298,482,
300,482,
310,484,
316,483,
307,483,
298,483,
303,487,
312,490,
318,495,
313,503,
301,513,
303,528,
315,545,
322,559,
319,565,
306,564,
306,561,
316,556,
324,548,
324,541,
309,533,
308,528,
317,524,
323,518,
322,511,
311,506,
306,503,
318,504,
326,500,
326,494,
313,489,
310,483,
318,479,
327,475,
327,470,
315,464,
308,460,
316,456,
324,453,
326,449,
312,445,
306,442,
312,441,
320,439,
323,436,
315,434,
305,433,
311,432,
320,434,
323,433,
315,429,
304,429,
310,433,
319,437,
321,436,
316,437,
304,435,
308,434,
317,433,
321,433,
316,432,
304,428,
308,427,
312,426,
319,423,
314,420,
302,417,
302,414,
311,414,
320,411,
318,409,
303,404,
302,401,
309,399,
317,398,
312,395,
303,394,
298,391,
308,393,
312,393,
315,393,
303,392,
298,395,
306,400,
316,404,
322,410,
308,414,
305,422,
315,432,
325,442,
331,452,
323,463,
318,475,
331,489,
340,503,
349,518,
340,530,
337,544,
351,559,
361,573,
372,588,
368,602,
362,613,
374,626,
383,638,
391,648,
391,657,
379,664,
388,672,
400,681,
407,685,
404,689,
390,690,
395,694,
404,698,
409,698,
406,697,
392,695,
392,694,
400,695,
404,693,
400,691,
384,686,
381,685,
388,682,
393,679,
390,673,
375,669,
371,664,
379,662,
384,659,
380,654,
368,648,
361,642,
367,639,
372,636,
372,631,
360,624,
349,619,
356,615,
361,608,
362,603,
349,595,
339,589,
343,586,
349,578,
352,572,
337,565,
325,560,
331,554,
338,550,
341,546,
332,542,
321,541,
325,542,
331,540,
333,535,
327,530,
316,522,
321,516,
328,512,
334,506,
326,502,
311,496,
313,491,
320,490,
324,490,
319,489,
304,486,
304,487,
313,492,
318,499,
316,510,
302,518,
302,522,
312,526,
319,528,
317,527,
307,521,
304,516,
314,513,
321,510,
321,504,
309,499,
306,492,
314,489,
325,483,
325,478,
313,470,
309,464,
318,461,
327,457,
328,453,
316,446,
308,442,
313,439,
323,435,
326,433,
315,429,
304,427,
312,426,
320,426,
326,427,
315,425,
304,424,
309,426,
318,427,
320,427,
314,425,
300,425,
304,426,
313,428,
318,431,
309,432,
298,429,
302,433,
311,435,
316,437,
313,437,
297,437,
300,438,
309,442,
315,442,
311,444,
299,442,
298,442,
307,443,
314,446,
313,446,
297,446,
295,446,
305,449,
310,450,
312,452,
299,458,
296,467,
307,481,
314,487,
317,494,
304,488,
298,483,
308,474,
316,467,
321,462,
308,452,
301,449,
308,455,
318,457,
320,459,
309,459,
302,457,
310,453,
317,448,
321,442,
311,443,
303,447,
310,453,
320,450,
322,439,
316,424,
306,413,
309,403,
320,395,
323,386,
318,380,
305,373,
309,368,
318,368,
324,367,
319,368,
310,370,
311,375,
322,384,
330,391,
331,402,
319,415,
323,432,
333,454,
343,481,
345,508,
338,532,
339,554,
354,573,
362,587,
366,603,
359,619,
358,632,
373,654,
383,670,
388,687,
380,699,
378,710,
389,723,
399,728,
404,733,
393,737,
387,735,
395,735,
406,731,
409,731,
399,722,
393,712,
397,701,
405,693,
408,685,
399,676,
387,668,
393,666,
396,661,
401,658,
392,655,
378,655,
381,654,
390,648,
391,642,
384,634,
370,627,
373,625,
379,621,
383,615,
378,611,
363,604,
363,599,
369,591,
374,582,
369,574,
350,565,
351,558,
357,551,
361,546,
356,539,
342,532,
338,527,
346,522,
351,517,
347,511,
334,507,
326,501,
334,499,
338,496,
339,494,
325,491,
318,488,
324,488,
328,484,
330,482,
317,481,
310,478,
317,479,
324,476,
327,477,
316,477,
307,476,
315,477,
324,478,
329,478,
320,478,
308,479,
318,480,
326,482,
330,482,
324,483,
315,482,
320,486,
329,488,
334,490,
327,491,
315,492,
318,495,
325,499,
333,500,
327,499,
315,498,
316,497,
323,499,
330,499,
328,499,
314,497,
313,503,
320,507,
324,508,
322,507,
307,505,
304,499,
311,497,
315,496,
314,493,
299,491,
295,489,
302,488,
312,485,
315,479,
301,470,
296,465,
301,458,
311,454,
315,448,
302,442,
296,435,
305,432,
313,427,
318,423,
306,420,
298,415,
305,412,
314,412,
316,408,
308,406,
296,404,
304,404,
312,404,
315,405,
307,405,
295,405,
301,406,
310,409,
313,409,
305,412,
292,412,
299,415,
308,417,
313,418,
308,419,
293,419,
296,424,
307,424,
311,427,
308,429,
297,431,
299,440,
307,448,
316,452,
312,455,
302,457,
301,460,
311,466,
319,472,
319,474,
309,474,
303,471,
316,472,
324,469,
327,467,
313,462,
309,459,
316,459,
324,456,
327,454,
314,451,
307,451,
316,455,
325,457,
329,461,
318,468,
312,482,
319,494,
330,499,
334,502,
325,509,
322,512,
329,515,
340,517,
348,516,
343,518,
335,520,
344,524,
356,531,
367,535,
364,541,
357,548,
364,559,
379,567,
388,576,
388,584,
377,590,
384,599,
394,609,
406,617,
401,624,
390,629,
392,635,
402,641,
410,646,
407,650,
393,651,
392,653,
400,657,
406,660,
405,659,
392,661,
385,662,
394,665,
400,665,
401,667,
387,668,
380,671,
385,680,
391,688,
390,687,
378,681,
370,673,
377,667,
383,662,
387,658,
370,659,
361,665,
363,668,
371,670,
372,671,
360,668,
348,666,
353,666,
357,664,
362,659,
352,650,
337,639,
340,626,
347,614,
349,599,
340,588,
326,573,
327,562,
335,552,
339,542,
334,534,
319,524,
322,517,
329,514,
336,509,
328,505,
315,499,
314,494,
320,492,
328,489,
321,486,
310,484,
306,479,
315,475,
321,472,
320,471,
308,471,
305,470,
316,471,
324,467,
326,467,
313,464,
309,462,
316,460,
324,461,
329,460,
317,458,
310,457,
320,459,
326,461,
330,462,
319,459,
310,463,
315,468,
321,471,
328,475,
317,477,
307,479,
313,480,
322,484,
326,486,
319,489,
306,489,
311,488,
320,487,
325,481,
318,481,
303,480,
311,477,
318,475,
322,469,
316,462,
302,456,
305,449,
315,444,
317,440,
314,433,
300,427,
302,422,
310,416,
315,414,
315,409,
298,404,
297,400,
307,398,
313,396,
313,394,
297,393,
294,391,
305,393,
312,394,
314,392,
297,394,
299,395,
306,397,
317,398,
319,399,
306,399,
298,399,
306,402,
315,403,
317,406,
308,405,
298,407,
305,409,
311,411,
315,413,
305,413,
295,414,
300,417,
308,417,
313,419,
305,419,
295,422,
301,423,
310,429,
315,432,
310,438,
299,441,
307,449,
318,457,
325,465,
322,474,
314,482,
321,492,
332,503,
343,517,
344,528,
337,540,
341,551,
356,566,
367,579,
372,591,
364,602,
367,613,
380,625,
392,636,
395,645,
384,653,
385,660,
397,668,
408,676,
408,680,
398,682,
393,684,
404,689,
410,691,
413,690,
398,689,
391,689,
398,689,
406,688,
406,685,
390,683,
384,679,
390,677,
395,674,
397,672,
382,667,
371,662,
377,658,
383,654,
385,650,
374,645,
363,640,
366,636,
374,633,
377,626,
372,622,
359,616,
365,612,
371,606,
374,602,
366,596,
351,589,
354,584,
360,580,
364,573,
354,566,
342,559,
339,553,
346,548,
353,542,
347,535,
332,527,
330,519,
336,516,
342,512,
337,506,
326,498,
319,494,
329,492,
334,489,
334,483,
319,479,
315,475,
322,475,
330,474,
331,473,
316,470,
312,467,
320,470,
327,469,
328,469,
317,469,
309,468,
312,469,
320,469,
322,469,
313,467,
302,468,
306,469,
313,470,
318,470,
310,469,
299,468,
303,469,
314,469,
317,468,
311,469,
297,467,
304,468,
311,467,
318,467,
313,467,
299,464,
303,464,
312,465,
317,464,
315,463,
303,460,
303,459,
311,458,
321,457,
317,456,
303,454,
302,451,
311,452,
320,451,
318,449,
306,448,
303,445,
312,446,
317,445,
319,445,
305,440,
301,438,
309,441,
318,440,
319,439,
306,438,
299,435,
307,436,
317,434,
319,435,
308,432,
299,431,
306,431,
316,431,
318,431,
308,429,
297,427,
305,427,
313,429,
317,427,
308,426,
298,426,
302,426,
310,427,
315,425,
309,425,
297,424,
301,425,
310,425,
317,425,
312,425,
299,423,
302,424,
311,424,
317,424,
313,423,
299,422,
304,423,
313,422,
320,423,
317,423,
303,421,
303,423,
311,424,
316,425,
314,426,
303,426,
298,428,
309,432,
315,438,
320,441,
305,446,
303,453,
314,463,
324,473,
329,483,
319,492,
318,503,
332,516,
344,529,
352,542,
347,555,
344,567,
359,583,
373,595,
381,610,
375,620,
369,633,
379,645,
392,657,
401,666,
396,674,
388,680,
397,688,
406,693,
411,699,
406,703,
397,703,
401,705,
410,709,
415,710,
409,708,
396,705,
399,705,
405,707,
410,704,
404,700,
389,696,
390,693,
394,690,
401,687,
398,683,
381,679,
380,674,
388,671,
393,668,
388,662,
376,656,
370,651,
378,647,
382,641,
384,636,
370,631,
364,623,
373,620,
379,615,
379,609,
364,603,
355,595,
360,590,
367,583,
365,577,
351,569,
341,562,
346,555,
352,550,
354,542,
341,536,
328,528,
333,523,
338,517,
338,512,
327,505,
313,498,
318,497,
326,491,
326,488,
317,484,
306,480,
308,478,
315,478,
322,475,
316,473,
302,471,
304,471,
313,474,
319,471,
315,470,
302,467,
304,468,
313,471,
320,470,
318,471,
305,470,
306,472,
314,472,
321,473,
317,472,
306,471,
304,470,
315,471,
323,472,
327,473,
314,470,
311,467,
319,470,
328,470,
331,469,
318,467,
315,467,
320,467,
330,467,
331,464,
319,463,
311,459,
317,460,
322,459,
325,457,
314,456,
303,453,
310,454,
316,454,
319,451,
309,449,
299,448,
303,447,
312,446,
313,445,
308,443,
297,440,
300,441,
309,441,
314,440,
307,438,
295,436,
300,436,
309,435,
314,437,
310,434,
297,434,
299,432,
307,433,
315,433,
314,432,
299,430,
299,429,
308,429,
315,430,
313,429,
302,427,
298,427,
309,427,
317,426,
318,425,
307,426,
302,423,
309,424,
318,426,
318,426,
306,422,
299,422,
309,423,
316,424,
318,422,
305,421,
300,420,
305,421,
316,422,
320,422,
308,422,
301,421,
308,422,
317,424,
320,424,
311,423,
302,425,
306,428,
317,432,
321,436,
317,441,
305,445,
314,453,
325,463,
331,472,
329,482,
319,491,
327,504,
338,516,
348,528,
349,541,
339,552,
346,566,
359,580,
367,593,
371,606,
362,615,
365,627,
378,640,
387,649,
389,657,
381,664,
381,671,
393,679,
402,685,
407,687,
396,692,
392,691,
401,696,
408,697,
411,696,
398,694,
392,692,
400,691,
410,692,
410,686,
397,684,
388,679,
396,678,
402,674,
404,671,
392,665,
381,660,
386,655,
391,653,
392,648,
382,641,
369,636,
373,632,
377,630,
379,623,
372,618,
357,612,
358,608,
365,603,
369,597,
357,590,
343,584,
344,577,
351,573,
353,566,
348,559,
332,551,
330,546,
337,542,
341,535,
336,528,
320,520,
321,514,
328,510,
334,505,
331,500,
315,493,
310,490,
316,488,
326,485,
325,482,
311,479,
306,474,
313,474,
320,475,
321,474,
306,468,
303,470,
310,471,
319,472,
320,471,
309,469,
301,469,
308,472,
318,473,
320,473,
310,471,
302,470,
307,471,
317,472,
322,472,
314,471,
304,469,
309,472,
319,474,
321,471,
317,472,
303,470,
310,470,
318,469,
323,470,
315,468,
303,465,
308,465,
313,467,
323,465,
320,463,
304,461,
308,459,
317,459,
322,458,
321,457,
306,454,
305,452,
313,450,
319,452,
318,450,
305,447,
301,445,
311,446,
318,445,
316,442,
304,440,
300,439,
308,440,
315,439,
316,438,
300,437,
297,434,
307,433,
313,433,
315,433,
303,430,
297,429,
305,430,
311,429,
316,430,
306,428,
296,427,
304,426,
312,426,
317,425,
306,423,
295,423,
303,424,
309,425,
313,424,
310,423,
295,422,
302,422,
309,423,
318,423,
309,421,
298,421,
302,422,
313,422,
319,426,
316,427,
303,428,
305,433,
315,438,
323,444,
321,449,
310,456,
313,465,
321,474,
333,485,
336,495,
328,505,
328,516,
343,531,
353,544,
361,557,
352,568,
352,579,
365,594,
377,607,
383,618,
374,627,
373,640,
384,649,
395,658,
399,666,
392,669,
386,674,
392,680,
403,683,
405,686,
395,686,
384,686,
389,687,
400,687,
404,686,
393,684,
381,679,
386,679,
394,676,
395,672,
388,670,
374,665,
379,661,
390,655,
392,653,
384,648,
370,643,
375,640,
382,635,
387,631,
380,626,
366,619,
366,615,
372,610,
377,605,
369,598,
356,593,
354,589,
362,583,
366,577,
359,569,
348,563,
340,556,
349,551,
353,544,
351,538,
336,531,
329,522,
334,519,
340,514,
341,508,
324,501,
317,496,
322,492,
325,490,
329,487,
317,483,
307,478,
315,478,
322,476,
324,474,
315,472,
304,469,
313,470,
317,470,
321,470,
312,469,
302,468,
306,471,
315,471,
316,471,
311,472,
299,472,
305,472,
314,472,
321,475,
315,473,
300,472,
305,474,
313,477,
321,475,
316,474,
303,473,
306,473,
310,474,
318,473,
315,472,
303,470,
304,469,
311,469,
317,469,
315,467,
302,463,
300,463,
307,464,
317,464,
318,461,
302,458,
300,455,
310,457,
316,455,
320,455,
303,451,
301,449,
311,449,
316,449,
319,446,
308,443,
299,441,
308,442,
317,441,
320,439,
306,438,
298,436,
302,436,
311,438,
315,435,
306,433,
295,432,
301,433,
308,431,
310,430,
305,429,
295,428,
298,429,
307,429,
311,428,
306,426,
292,424,
297,424,
306,426,
314,425,
306,424,
296,422,
299,423,
307,424,
315,423,
315,424,
303,423,
303,424,
314,427,
322,431,
320,434,
309,436,
307,442,
320,450,
329,458,
331,466,
322,475,
321,483,
331,496,
346,508,
352,520,
343,531,
342,543,
357,558,
367,572,
374,587,
366,600,
367,611,
378,625,
391,637,
398,648,
391,655,
385,664,
396,673,
404,681,
410,686,
403,690,
394,693,
402,698,
410,701,
413,702,
408,703,
393,701,
398,702,
406,701,
412,700,
404,697,
387,695,
393,693,
397,692,
401,688,
394,684,
377,678,
380,675,
386,671,
392,669,
385,665,
372,657,
368,653,
374,649,
380,646,
374,641,
361,634,
356,627,
366,624,
370,620,
369,613,
356,607,
350,598,
356,594,
362,588,
362,581,
346,573,
339,566,
346,561,
350,553,
351,546,
335,537,
326,529,
332,523,
335,518,
337,511,
321,503,
310,496,
315,494,
319,489,
323,483,
311,479,
302,474,
308,472,
312,469,
318,466,
312,463,
300,460,
303,460,
314,460,
316,459,
312,459,
295,456,
300,457,
309,459,
314,459,
309,459,
295,458,
301,457,
308,460,
314,462,
314,462,
300,460,
301,460,
311,462,
319,463,
317,463,
304,460,
299,460,
311,461,
318,462,
318,460,
306,457,
302,456,
310,458,
318,459,
320,457,
305,455,
303,453,
308,454,
317,454,
319,451,
307,450,
301,448,
308,449,
317,448,
319,447,
309,446,
301,444,
308,444,
316,444,
319,443,
311,442,
302,439,
309,440,
318,441,
320,443,
316,447,
301,468,
305,495,
310,523,
316,543,
309,557,
295,566,
298,573,
305,577,
310,578,
305,577,
289,576,
293,575,
303,573,
309,572,
307,566,
293,554,
293,546,
303,540,
308,529,
307,519,
297,511,
291,501,
304,492,
307,484,
311,474,
299,462,
294,456,
303,448,
312,439,
315,430,
303,422,
296,418,
305,415,
314,406,
318,395,
305,381,
298,370,
303,362,
313,355,
320,349,
306,347,
303,344,
311,345,
317,351,
325,354,
320,361,
313,369,
319,387,
330,404,
338,416,
337,432,
328,444,
338,461,
353,480,
362,496,
362,511,
356,528,
364,548,
376,569,
386,587,
386,605,
378,627,
382,654,
394,680,
403,703,
404,717,
393,726,
395,732,
404,737,
411,746,
411,753,
400,756,
394,760,
404,769,
410,774,
410,776,
398,775,
392,774,
399,776,
406,773,
406,770,
392,763,
386,753,
393,748,
398,739,
398,733,
383,720,
375,707,
379,701,
384,691,
385,684,
374,676,
360,666,
365,656,
371,644,
373,639,
363,633,
351,626,
354,623,
363,615,
363,604,
357,595,
342,588,
345,584,
350,577,
354,572,
348,561,
332,545,
333,535,
341,525,
344,517,
337,514,
321,506,
320,497,
327,489,
331,482,
326,479,
314,477,
310,473,
318,469,
325,463,
322,457,
311,448,
305,443,
313,442,
322,439,
321,436,
307,432,
303,430,
309,434,
320,436,
321,441,
307,447,
300,452,
307,456,
318,454,
321,454,
309,451,
301,449,
308,448,
316,447,
323,445,
310,441,
302,440,
308,439,
317,437,
319,433,
311,430,
299,427,
305,427,
313,427,
317,424,
310,423,
300,422,
304,422,
314,421,
318,422,
313,421,
298,420,
302,421,
311,423,
316,425,
309,423,
299,424,
298,423,
308,426,
314,426,
312,425,
298,425,
297,424,
307,425,
313,425,
310,423,
298,424,
294,423,
303,425,
311,424,
311,424,
299,422,
296,419,
304,421,
311,422,
314,422,
303,420,
298,420,
302,420,
311,422,
313,422,
301,421,
295,421,
303,424,
313,425,
316,426,
305,423,
294,423,
303,425,
312,425,
315,424,
306,423,
296,421,
302,421,
309,423,
310,419,
307,420,
294,417,
299,417,
307,419,
313,421,
305,421,
295,428,
298,435,
308,441,
314,444,
308,447,
298,447,
301,447,
310,447,
318,447,
314,442,
302,438,
304,433,
311,431,
322,430,
324,431,
313,432,
311,435,
325,441,
333,446,
339,454,
325,462,
327,469,
338,482,
353,494,
359,506,
349,516,
351,529,
362,543,
372,558,
381,571,
374,583,
370,594,
382,606,
394,620,
398,629,
390,638,
382,648,
390,657,
400,664,
405,669,
398,673,
389,676,
394,680,
403,685,
407,685,
402,686,
389,687,
393,688,
400,688,
405,686,
397,684,
384,679,
385,679,
390,678,
399,677,
388,669,
375,665,
374,664,
381,662,
385,658,
381,653,
364,646,
363,641,
370,637,
376,633,
374,626,
358,619,
353,613,
361,609,
364,602,
364,595,
349,588,
342,580,
349,575,
355,569,
353,562,
338,556,
328,548,
332,542,
341,537,
342,530,
328,525,
320,517,
325,511,
330,506,
332,500,
320,494,
311,488,
316,484,
321,482,
324,478,
314,475,
302,470,
309,468,
317,468,
318,465,
313,464,
301,462,
305,461,
315,460,
318,462,
315,460,
300,458,
305,460,
314,461,
321,461,
318,461,
306,459,
307,460,
316,460,
322,460,
321,460,
306,459,
306,459,
316,460,
323,460,
323,460,
310,460,
304,460,
312,464,
318,465,
321,465,
304,465,
302,464,
310,466,
316,466,
319,466,
306,464,
298,464,
306,465,
313,466,
317,468,
304,469,
297,473,
303,484,
310,491,
316,495,
299,498,
294,496,
299,493,
304,488,
310,483,
301,475,
289,468,
296,465,
306,459,
309,452,
303,447,
289,440,
296,435,
304,433,
310,427,
306,423,
292,417,
296,414,
304,413,
311,410,
308,408,
295,407,
297,409,
307,413,
314,416,
314,418,
300,419,
298,420,
307,425,
316,427,
315,433,
303,440,
298,444,
309,448,
319,449,
318,449,
306,445,
301,443,
309,446,
318,450,
320,452,
309,454,
305,454,
316,456,
326,460,
332,462,
321,467,
317,471,
327,479,
339,487,
347,496,
339,503,
334,510,
345,520,
358,532,
365,541,
361,550,
354,562,
365,574,
377,585,
384,594,
381,605,
373,613,
381,626,
392,637,
400,649,
397,662,
384,675,
389,687,
397,698,
403,703,
399,701,
387,698,
386,694,
395,691,
401,685,
398,678,
384,670,
381,663,
388,659,
394,653,
391,646,
378,638,
372,632,
380,627,
386,625,
387,622,
372,616,
365,615,
373,615,
381,615,
380,611,
366,606,
357,604,
362,601,
367,598,
368,597,
353,594,
343,587,
349,581,
353,577,
356,569,
340,558,
329,550,
334,543,
337,536,
343,527,
332,519,
319,512,
324,508,
331,500,
331,496,
324,493,
310,490,
314,488,
321,489,
326,488,
318,486,
303,483,
307,485,
316,488,
320,493,
316,492,
303,489,
303,485,
312,482,
317,476,
315,472,
302,465,
301,462,
310,460,
317,457,
312,453,
302,449,
300,448,
307,448,
314,447,
314,444,
303,439,
298,440,
306,440,
314,442,
317,442,
305,439,
298,440,
308,439,
315,439,
318,439,
306,436,
297,432,
306,434,
311,433,
316,435,
307,435,
299,436,
306,440,
315,447,
318,473,
309,501,
301,523,
305,547,
312,564,
316,576,
311,585,
300,592,
305,598,
313,602,
319,604,
314,606,
300,604,
303,601,
313,597,
318,588,
313,580,
297,569,
297,559,
305,549,
311,539,
309,524,
295,508,
292,494,
303,482,
309,469,
308,453,
297,434,
292,418,
303,400,
310,382,
310,359,
296,337,
294,318,
302,305,
311,291,
312,278,
302,268,
293,260,
304,256,
311,254,
318,251,
306,250,
299,253,
306,258,
313,263,
320,272,
309,276,
302,289,
309,300,
319,313,
325,333,
317,350,
309,369,
317,394,
328,412,
331,425,
327,439,
317,449,
323,462,
335,476,
343,489,
341,501,
329,514,
338,531,
350,547,
359,562,
361,576,
351,588,
359,602,
368,615,
379,628,
380,641,
369,648,
374,658,
384,668,
394,677,
394,688,
384,702,
382,711,
395,723,
403,731,
405,736,
392,739,
390,735,
398,735,
407,730,
410,723,
394,715,
387,706,
394,699,
401,693,
404,685,
390,677,
381,672,
388,665,
393,658,
395,652,
382,645,
372,639,
376,633,
386,627,
388,620,
375,613,
365,606,
370,601,
376,596,
379,590,
372,584,
357,577,
360,574,
366,569,
373,564,
364,558,
351,551,
351,546,
357,544,
362,536,
356,532,
341,527,
339,519,
346,514,
348,511,
344,505,
328,499,
324,492,
330,489,
333,485,
331,479,
317,472,
309,470,
317,468,
323,465,
322,462,
307,459,
302,454,
307,456,
316,455,
316,454,
304,452,
297,471,
303,491,
310,509,
314,522,
304,525,
295,530,
302,537,
310,541,
314,542,
304,537,
293,538,
299,538,
308,532,
314,529,
307,523,
296,522,
304,526,
309,527,
315,519,
309,510,
297,500,
303,492,
313,492,
316,491,
310,493,
297,490,
300,491,
309,488,
314,491,
311,490,
299,483,
301,480,
309,483,
316,483,
311,475,
298,468,
298,460,
305,449,
314,435,
314,422,
300,406,
297,396,
308,388,
316,380,
317,378,
306,383,
301,385,
311,397,
317,407,
319,414,
305,422,
297,431,
306,450,
313,465,
318,478,
306,482,
297,486,
305,489,
310,491,
314,489,
302,487,
294,487,
301,485,
307,477,
311,466,
303,460,
291,450,
297,439,
304,434,
309,424,
304,416,
292,407,
295,401,
305,395,
310,391,
307,384,
293,377,
298,378,
306,376,
312,372,
308,367,
296,360,
298,356,
308,354,
315,349,
314,349,
300,347,
300,349,
311,356,
318,366,
317,373,
306,377,
303,384,
313,393,
324,409,
326,425,
313,444,
313,458,
324,476,
334,493,
338,504,
331,513,
324,525,
338,541,
350,553,
354,563,
345,569,
345,580,
356,596,
370,612,
378,624,
371,634,
364,641,
376,648,
387,653,
394,657,
388,661,
379,664,
384,669,
395,675,
400,684,
394,691,
382,701,
387,717,
395,728,
402,733,
398,738,
383,741,
385,742,
393,740,
400,738,
394,730,
381,721,
380,707,
389,693,
394,675,
390,658,
373,640,
373,625,
381,613,
387,602,
384,588,
368,576,
364,567,
373,557,
378,548,
378,538,
365,530,
358,525,
364,521,
370,513,
371,506,
354,497,
348,490,
354,483,
361,479,
360,474,
347,465,
335,459,
341,459,
346,457,
346,461,
334,460,
322,459,
327,456,
332,456,
336,454,
326,453,
311,451,
317,457,
326,466,
326,470,
319,475,
305,477,
308,482,
318,486,
323,491,
316,489,
301,487,
308,487,
315,488,
320,485,
314,483,
300,483,
305,484,
314,484,
320,486,
319,484,
306,482,
306,483,
315,485,
324,488,
321,490,
311,494,
309,500,
317,504,
326,505,
325,500,
313,497,
309,490,
318,489,
323,486,
325,487,
313,488,
306,491,
314,494,
322,499,
323,502,
309,502,
301,502,
309,502,
318,500,
320,498,
306,494,
298,491,
305,489,
316,488,
318,490,
309,489,
299,485,
305,480,
312,473,
316,465,
310,459,
300,453,
302,449,
311,448,
316,449,
311,451,
299,450,
301,453,
311,455,
314,459,
312,460,
298,458,
301,458,
308,458,
314,456,
313,452,
298,450,
296,453,
306,452,
314,448,
311,440,
295,428,
293,414,
304,403,
310,391,
313,379,
299,368,
297,357,
307,353,
314,347,
316,343,
302,340,
298,338,
308,340,
316,342,
318,346,
309,349,
302,356,
312,367,
322,379,
328,389,
320,403,
315,416,
324,432,
339,447,
346,464,
341,480,
335,496,
346,515,
360,532,
367,548,
366,564,
358,580,
367,594,
380,609,
391,622,
386,633,
376,641,
381,651,
393,661,
401,667,
400,670,
385,674,
389,677,
399,682,
405,684,
403,684,
388,681,
387,679,
395,679,
401,676,
400,673,
383,667,
379,663,
388,660,
393,656,
393,650,
377,645,
369,637,
376,635,
382,631,
382,626,
366,617,
361,612,
366,608,
370,602,
371,595,
357,589,
348,583,
353,579,
360,575,
360,568,
346,561,
333,555,
340,550,
347,545,
347,539,
336,532,
322,525,
326,522,
331,515,
331,511,
323,507,
306,502,
311,497,
318,494,
320,492,
314,490,
300,486,
303,488,
312,492,
318,498,
312,504,
299,506,
300,509,
311,511,
315,511,
312,511,
300,508,
300,507,
308,509,
315,509,
315,506,
302,506,
300,507,
310,511,
318,513,
317,520,
308,526,
303,530,
313,538,
321,543,
326,548,
313,545,
305,542,
313,533,
325,522,
327,510,
316,496,
309,485,
317,477,
323,472,
329,469,
317,460,
307,452,
315,445,
318,441,
325,433,
314,422,
304,411,
307,403,
317,394,
318,383,
311,375,
299,368,
306,365,
313,366,
316,364,
310,364,
296,364,
300,366,
307,370,
314,372,
309,372,
295,373,
298,375,
305,377,
312,380,
309,382,
296,385,
298,392,
306,397,
314,401,
312,405,
299,408,
296,410,
308,414,
315,418,
316,420,
303,421,
298,422,
308,424,
313,430,
316,430,
302,432,
297,436,
307,440,
315,444,
317,446,
306,446,
297,447,
305,447,
314,449,
317,450,
306,450,
295,449,
304,448,
312,447,
316,449,
308,452,
298,452,
306,453,
313,448,
318,442,
310,433,
301,429,
304,424,
315,419,
321,418,
316,418,
304,416,
310,420,
322,427,
329,433,
328,438,
317,446,
323,455,
335,468,
345,479,
348,491,
338,502,
342,515,
354,530,
366,546,
371,560,
362,571,
364,586,
379,598,
391,612,
395,623,
386,634,
384,643,
396,655,
406,664,
410,670,
399,675,
393,680,
402,684,
410,687,
412,688,
401,686,
391,688,
399,688,
407,689,
408,686,
397,683,
384,681,
390,677,
396,676,
397,670,
387,665,
374,658,
379,655,
384,649,
385,643,
376,638,
361,631,
368,626,
374,624,
377,618,
369,612,
353,604,
356,603,
361,600,
366,597,
361,595,
346,593,
348,592,
353,591,
358,587,
352,584,
337,580,
334,574,
340,571,
346,568,
343,564,
331,562,
326,558,
335,558,
340,556,
339,547,
325,538,
318,525,
325,517,
331,507,
331,498,
320,489,
314,480,
320,474,
326,468,
329,463,
315,455,
307,451,
315,451,
323,447,
325,445,
313,442,
304,441,
312,440,
319,443,
321,442,
313,442,
300,442,
307,450,
315,459,
319,464,
313,464,
300,462,
304,463,
315,463,
320,462,
314,460,
301,459,
303,459,
313,459,
318,458,
313,459,
302,459,
302,461,
311,461,
318,462,
316,461,
302,457,
304,457,
313,458,
318,455,
316,453,
304,450,
301,448,
309,447,
315,446,
316,445,
302,440,
295,435,
303,437,
310,437,
313,433,
298,430,
293,426,
302,424,
312,425,
316,421,
302,417,
295,414,
302,414,
309,413,
313,414,
302,412,
293,411,
300,413,
308,414,
312,418,
302,418,
293,418,
300,422,
305,425,
310,427,
303,428,
290,428,
295,433,
307,434,
313,438,
308,436,
295,438,
299,442,
311,444,
318,446,
309,446,
298,445,
301,446,
311,447,
319,448,
317,447,
302,445,
303,447,
313,447,
320,446,
319,445,
306,445,
305,446,
313,449,
324,452,
322,453,
311,456,
306,457,
319,467,
326,474,
331,480,
319,488,
317,501,
327,514,
339,529,
344,548,
335,567,
333,581,
345,597,
359,606,
365,614,
359,618,
354,623,
368,631,
379,637,
387,639,
383,641,
376,640,
386,642,
398,642,
404,641,
401,640,
392,637,
400,636,
406,637,
413,635,
407,632,
393,628,
399,628,
407,628,
413,625,
408,621,
395,618,
395,617,
401,615,
406,612,
402,609,
385,606,
382,601,
389,599,
395,598,
390,595,
373,591,
367,588,
374,589,
379,587,
374,584,
360,581,
353,578,
358,578,
366,578,
364,575,
350,571,
340,566,
347,564,
352,560,
353,554,
339,550,
327,545,
334,542,
340,536,
342,532,
329,526,
319,522,
325,517,
331,513,
333,509,
322,502,
311,499,
316,494,
323,492,
327,490,
318,486,
307,483,
310,481,
316,480,
321,478,
312,475,
300,472,
306,472,
314,472,
321,471,
316,470,
302,469,
309,469,
318,471,
322,470,
321,471,
304,468,
307,470,
316,471,
324,473,
321,471,
307,470,
305,472,
315,474,
321,473,
319,474,
306,474,
300,471,
312,475,
318,476,
321,476,
309,475,
303,475,
312,474,
319,474,
322,473,
310,471,
302,468,
311,468,
319,470,
320,468,
311,465,
302,464,
308,464,
316,463,
321,462,
310,460,
300,457,
307,457,
314,458,
320,457,
313,456,
301,454,
306,452,
313,454,
320,453,
313,450,
300,448,
306,448,
315,448,
319,447,
316,446,
299,442,
301,442,
312,443,
315,443,
313,440,
297,439,
297,438,
305,440,
311,440,
308,440,
297,438,
296,437,
306,440,
313,439,
314,438,
300,438,
295,435,
304,438,
314,441,
315,440,
303,438,
298,439,
307,442,
315,445,
319,448,
307,451,
300,457,
311,467,
320,474,
329,483,
319,493,
314,501,
328,513,
339,525,
347,536,
343,546,
339,558,
350,570,
364,583,
373,594,
371,605,
361,614,
371,626,
382,638,
391,645,
387,653,
376,657,
383,664,
393,670,
403,675,
400,677,
387,677,
391,680,
399,682,
405,680,
404,678,
387,674,
391,674,
397,671,
402,669,
397,664,
385,658,
380,654,
386,651,
393,648,
392,644,
377,639,
370,634,
380,633,
384,630,
386,626,
369,621,
365,617,
373,614,
378,610,
380,607,
367,600,
357,596,
362,593,
367,587,
370,581,
355,576,
345,570,
348,564,
351,558,
354,550,
341,544,
328,539,
334,533,
340,526,
341,520,
331,515,
317,507,
318,504,
325,500,
329,496,
318,491,
305,486,
309,482,
316,482,
321,480,
315,477,
302,475,
301,475,
311,474,
316,473,
311,473,
297,470,
298,469,
308,471,
316,471,
312,470,
301,469,
299,471,
310,473,
316,474,
317,474,
303,473,
300,472,
311,476,
322,479,
324,477,
312,475,
306,476,
312,477,
321,476,
323,476,
313,474,
304,473,
312,472,
320,473,
323,471,
312,468,
304,467,
312,465,
321,464,
324,463,
317,460,
306,457,
313,458,
323,459,
326,457,
317,456,
310,454,
312,454,
320,453,
327,455,
320,453,
306,451,
309,451,
317,451,
323,451,
319,449,
306,448,
307,447,
318,446,
322,447,
319,446,
306,446,
305,444,
313,447,
318,445,
315,443,
301,441,
298,439,
308,439,
315,439,
314,436,
301,435,
295,433,
306,436,
312,434,
314,433,
301,431,
296,431,
305,430,
312,431,
315,431,
304,426,
297,426,
306,427,
314,428,
318,429,
307,427,
295,428,
305,428,
314,431,
319,432,
309,430,
301,433,
308,437,
317,439,
320,445,
312,451,
303,456,
310,464,
320,472,
328,483,
323,493,
313,501,
324,516,
336,527,
347,540,
348,552,
340,565,
347,577,
362,593,
373,605,
374,617,
368,629,
372,640,
385,653,
395,663,
398,670,
388,678,
387,683,
399,690,
411,695,
410,696,
400,699,
393,698,
406,702,
412,705,
414,702,
400,699,
393,699,
399,697,
407,696,
409,694,
396,688,
386,685,
393,681,
399,681,
403,677,
389,670,
379,666,
386,663,
391,659,
393,655,
381,649,
367,642,
371,639,
379,634,
381,629,
371,623,
357,617,
361,612,
367,608,
371,602,
362,595,
349,588,
352,583,
358,578,
362,572,
357,565,
339,558,
340,551,
347,546,
349,540,
346,533,
326,525,
327,520,
334,516,
339,511,
336,505,
321,501,
318,496,
325,495,
332,492,
333,492,
318,488,
309,487,
318,491,
323,493,
322,494,
307,494,
301,494,
310,498,
316,500,
318,501,
305,501,
299,502,
307,505,
315,507,
318,508,
305,507,
299,509,
307,511,
315,512,
319,512,
310,510,
301,509,
307,513,
315,515,
320,516,
314,513,
303,510,
308,507,
317,505,
323,502,
317,497,
303,495,
307,493,
316,487,
323,485,
318,480,
304,474,
307,473,
314,471,
320,469,
317,465,
303,461,
304,458,
314,459,
318,456,
317,452,
302,447,
298,443,
308,440,
316,437,
313,431,
302,425,
295,420,
304,419,
312,416,
313,410,
300,406,
296,403,
302,400,
311,398,
314,395,
302,392,
293,389,
302,389,
311,390,
313,388,
303,390,
294,387,
297,385,
310,387,
313,386,
303,385,
295,384,
301,386,
311,388,
314,389,
308,389,
293,390,
301,392,
312,397,
318,399,
311,400,
298,403,
303,407,
314,409,
321,416,
318,421,
306,425,
309,433,
321,444,
327,454,
326,462,
316,472,
318,484,
329,499,
340,512,
342,525,
332,539,
334,553,
348,570,
359,583,
365,598,
357,611,
354,621,
370,637,
381,648,
388,660,
379,667,
376,675,
386,685,
398,690,
403,694,
392,697,
387,699,
395,702,
404,704,
408,704,
398,703,
388,700,
393,698,
403,697,
406,693,
394,688,
381,682,
388,679,
395,676,
397,671,
388,665,
374,658,
380,653,
384,648,
388,642,
380,636,
366,629,
369,624,
374,621,
379,615,
369,609,
358,601,
358,597,
366,593,
370,588,
367,581,
348,576,
351,569,
357,566,
363,561,
359,554,
343,545,
340,541,
345,537,
349,532,
349,527,
333,520,
322,512,
328,511,
337,506,
338,502,
321,495,
312,493,
320,490,
326,489,
329,486,
314,483,
304,479,
314,480,
322,478,
324,476,
313,473,
303,473,
311,474,
320,473,
323,474,
310,472,
300,470,
306,471,
318,472,
324,475,
315,473,
301,473,
309,477,
318,478,
325,478,
316,477,
303,475,
308,476,
316,477,
323,477,
319,476,
302,474,
305,475,
315,474,
321,475,
319,473,
303,472,
302,470,
312,469,
324,469,
321,466,
306,464,
303,461,
314,461,
324,460,
324,457,
301,456,
279,453,
293,454,
309,452,
317,450,
291,450,
265,449,
283,457,
305,483,
324,513,
296,542,
268,568,
287,592,
313,607,
332,623,
311,630,
281,644,
295,651,
319,652,
338,655,
324,655,
292,653,
301,650,
324,645,
342,630,
333,617,
294,603,
299,590,
318,581,
345,567,
337,557,
296,547,
295,540,
320,529,
339,521,
333,507,
293,493,
287,481,
312,476,
334,472,
335,471,
297,469,
288,466,
310,467,
339,471,
344,473,
309,470,
293,473,
320,478,
347,489,
361,498,
327,513,
310,528,
339,549,
367,562,
385,571,
361,579,
337,588,
361,594,
389,600,
410,606,
384,617,
357,630,
377,645,
406,663,
424,672,
400,679,
366,684,
383,690,
411,694,
429,695,
408,693,
369,693,
383,697,
404,703,
426,705,
408,708,
366,707,
375,709,
398,708,
418,708,
404,705,
360,699,
361,687,
388,673,
411,667,
402,661,
359,654,
352,648,
379,642,
402,637,
398,632,
352,628,
342,626,
366,624,
389,618,
392,611,
346,605,
329,601,
354,590,
376,574,
380,551,
335,529,
309,507,
333,498,
356,492,
363,491,
324,486,
297,482,
316,476,
338,474,
352,469,
317,464,
284,466,
302,467,
327,474,
347,477,
315,477,
278,479,
293,476,
320,476,
340,470,
318,468,
277,466,
292,468,
318,469,
338,466,
322,464,
279,466,
292,468,
314,472,
338,472,
327,476,
282,476,
287,480,
311,481,
338,484,
330,491,
288,493,
286,493,
313,491,
337,486,
335,481,
290,475,
279,469,
308,463,
333,457,
335,452,
296,447,
279,444,
307,444,
333,441,
340,438,
301,437,
277,434,
300,433,
331,430,
343,429,
303,427,
278,433,
301,436,
322,442,
342,441,
307,438,
276,438,
299,434,
326,435,
344,435,
316,438,
277,441,
296,445,
325,452,
345,456,
320,455,
282,448,
297,443,
324,436,
342,428,
321,421,
283,414,
292,406,
319,399,
340,396,
327,392,
282,388,
287,385,
312,385,
335,384,
329,385,
283,388,
280,391,
308,399,
333,401,
332,406,
282,409,
277,415,
305,420,
329,425,
333,429,
292,438,
277,444,
306,449,
332,455,
341,460,
303,465,
281,467,
310,475,
341,480,
353,487,
318,491,
299,496,
323,502,
356,509,
377,518,
346,526,
321,537,
347,546,
379,559,
401,570,
375,580,
346,594,
368,606,
398,619,
421,632,
395,643,
361,653,
376,663,
407,673,
431,681,
410,688,
372,692,
381,699,
409,702,
433,704,
419,706,
376,711,
380,713,
409,713,
430,716,
420,721,
374,724,
375,733,
401,734,
424,739,
418,740,
369,734,
363,729,
387,722,
412,716,
413,711,
365,708,
351,709,
375,711,
394,711,
402,710,
362,704,
334,700,
361,693,
381,680,
393,664,
348,645,
323,628,
342,608,
367,588,
378,568,
342,550,
308,533,
330,519,
352,502,
366,487,
333,475,
297,464,
312,452,
338,442,
354,436,
328,430,
286,423,
303,420,
326,416,
348,416,
328,416,
286,418,
293,420,
322,426,
342,431,
327,440,
282,448,
289,456,
314,463,
339,471,
329,476,
282,482,
281,486,
309,489,
332,491,
329,493,
284,497,
277,499,
302,497,
330,495,
334,492,
290,486,
276,481,
306,478,
332,474,
340,469,
299,464,
277,452,
306,447,
334,440,
345,435,
306,429,
280,425,
306,421,
332,417,
346,417,
309,415,
281,414,
305,416,
329,418,
347,417,
316,416,
279,417,
298,418,
324,418,
342,416,
317,416,
273,415,
290,412,
316,413,
338,410,
320,408,
276,406,
288,409,
313,409,
337,408,
323,407,
278,407,
282,406,
308,409,
333,408,
327,411,
279,409,
278,411,
306,412,
328,413,
327,414,
277,413,
274,416,
299,417,
323,418,
326,417,
282,418,
269,418,
299,420,
325,420,
330,420,
292,422,
271,422,
297,428,
326,432,
342,435,
306,439,
279,447,
309,454,
339,462,
359,470,
329,481,
298,493,
326,507,
356,519,
377,532,
349,547,
319,561,
344,577,
373,591,
396,605,
376,617,
339,629,
357,640,
386,651,
412,660,
396,668,
354,673,
370,680,
400,685,
424,690,
413,693,
367,693,
374,696,
402,695,
426,696,
418,695,
370,695,
371,693,
397,692,
420,690,
416,687,
368,682,
362,677,
389,673,
413,669,
414,666,
367,660,
353,655,
378,652,
401,646,
407,640,
366,635,
341,629,
369,629,
389,623,
402,620,
359,618,
333,610,
352,605,
377,599,
391,593,
353,586,
319,578,
339,574,
363,567,
378,562,
343,554,
303,549,
316,543,
341,536,
361,530,
