PPG A0,PPG A1,event_code
322,515,
323,523,
322,525,
325,533,
324,536,
322,541,
321,542,
326,543,
322,544,
326,546,
324,544,
324,543,
325,540,
328,538,
325,535,
326,531,
327,528,
332,522,
332,518,
331,512,
333,508,
331,501,
333,495,
337,491,
333,486,
332,479,
333,473,
334,468,
337,463,
332,460,
333,451,
333,449,
333,443,
336,439,
335,437,
336,435,
334,429,
335,425,
338,423,
335,424,
335,421,
337,419,
338,416,
339,415,
339,416,
337,414,
335,412,
338,412,
337,413,
337,414,
334,415,
331,413,
333,414,
333,415,
333,416,
334,418,
334,418,
330,422,
331,421,
332,426,
330,429,
330,431,
329,431,
330,434,
327,435,
329,438,
325,440,
324,440,
326,442,
326,445,
326,445,
323,445,
322,445,
326,448,
326,449,
327,451,
326,453,
326,453,
327,454,
326,454,
328,456,
327,456,
328,455,
326,455,
333,456,
331,456,
329,454,
327,458,
330,459,
331,462,
330,465,
329,470,
325,475,
328,482,
329,492,
330,503,
326,517,
323,533,
329,547,
327,562,
329,578,
328,597,
326,616,
326,635,
326,654,
327,674,
328,695,
326,713,
325,731,
326,745,
328,762,
328,774,
329,785,
329,795,
334,802,
333,809,
335,813,
335,816,
336,814,
339,813,
339,809,
340,803,
343,795,
341,785,
345,772,
346,759,
348,746,
346,729,
348,712,
352,694,
352,675,
353,657,
352,638,
352,617,
354,598,
353,580,
354,564,
350,544,
350,528,
353,513,
353,496,
351,482,
351,468,
349,455,
348,443,
352,435,
353,424,
350,415,
348,407,
350,399,
351,392,
345,389,
344,382,
345,379,
342,375,
342,374,
344,373,
340,373,
343,375,
339,377,
343,380,
338,385,
340,390,
336,393,
333,400,
335,406,
333,415,
333,423,
329,429,
331,440,
332,445,
330,456,
329,465,
326,475,
325,483,
328,490,
327,498,
328,504,
328,512,
326,517,
332,523,
329,530,
331,535,
331,538,
329,541,
330,543,
331,544,
330,546,
331,547,
330,544,
333,542,
335,543,
334,541,
329,537,
332,535,
331,530,
334,527,
334,523,
333,516,
333,512,
331,505,
333,502,
335,497,
334,492,
333,487,
335,481,
337,476,
335,470,
334,465,
334,459,
334,453,
336,449,
334,446,
333,441,
330,436,
334,434,
332,430,
332,429,
331,426,
329,422,
333,422,
330,418,
333,418,
333,417,
332,414,
327,415,
334,413,
332,414,
331,415,
330,414,
325,414,
327,415,
328,417,
327,418,
323,420,
322,422,
321,423,
323,425,
320,428,
319,429,
320,430,
322,432,
322,433,
323,435,
320,436,
320,437,
322,437,
322,442,
319,443,
318,443,
320,444,
320,447,
322,451,
318,452,
319,454,
319,455,
318,454,
322,455,
321,454,
322,456,
323,454,
324,454,
327,453,
325,454,
326,456,
323,454,
327,455,
327,455,
327,456,
326,458,
325,462,
329,467,
331,471,
329,480,
329,490,
328,499,
331,512,
329,523,
332,540,
331,557,
331,572,
332,589,
332,607,
331,624,
331,640,
332,657,
327,672,
331,690,
334,706,
331,721,
332,733,
333,744,
337,755,
334,764,
336,771,
336,777,
336,779,
336,780,
341,778,
339,776,
337,770,
338,763,
339,753,
342,743,
341,732,
339,719,
339,706,
344,691,
344,675,
344,659,
344,645,
341,627,
342,610,
340,594,
342,576,
341,561,
337,546,
340,529,
341,514,
341,500,
340,486,
340,474,
337,461,
336,448,
337,436,
333,429,
332,418,
333,410,
333,400,
334,394,
332,388,
330,382,
333,378,
330,371,
333,370,
332,368,
333,369,
330,370,
334,371,
332,373,
333,375,
331,380,
332,383,
330,389,
334,396,
329,402,
328,411,
329,419,
333,426,
331,435,
331,445,
330,452,
325,461,
329,470,
328,477,
327,487,
327,495,
327,503,
327,511,
329,516,
326,524,
324,528,
327,535,
327,538,
328,541,
329,544,
327,547,
327,548,
328,547,
329,547,
331,547,
327,543,
328,541,
330,539,
330,534,
330,532,
330,528,
332,523,
331,517,
334,511,
334,508,
335,502,
332,496,
334,490,
337,485,
336,483,
335,479,
333,471,
334,468,
334,459,
336,457,
335,454,
335,450,
338,445,
339,441,
337,438,
335,433,
333,430,
331,426,
333,425,
332,424,
330,422,
330,421,
330,420,
333,420,
330,419,
328,418,
326,418,
325,419,
325,419,
326,418,
328,420,
324,420,
323,420,
326,422,
326,423,
323,426,
321,427,
322,429,
322,432,
325,434,
323,437,
322,437,
317,438,
321,439,
324,440,
321,442,
323,445,
322,446,
323,447,
324,447,
325,450,
325,452,
324,452,
324,454,
326,453,
329,455,
327,456,
327,454,
330,455,
328,455,
328,456,
329,455,
326,455,
328,456,
326,453,
327,456,
326,457,
326,456,
323,455,
327,456,
326,455,
324,457,
325,457,
322,458,
327,460,
326,463,
326,467,
324,473,
324,481,
329,487,
325,497,
328,509,
327,521,
327,535,
328,552,
331,567,
331,585,
328,601,
329,619,
333,635,
334,653,
333,668,
330,684,
333,702,
336,713,
337,727,
337,741,
336,750,
338,758,
338,763,
340,769,
341,772,
342,773,
341,771,
341,769,
342,764,
341,757,
341,751,
340,740,
342,730,
340,717,
339,704,
341,691,
338,675,
340,660,
341,642,
341,628,
340,612,
338,593,
341,577,
340,559,
343,545,
339,531,
340,516,
339,499,
343,486,
342,472,
340,460,
339,447,
337,437,
338,423,
338,414,
336,406,
336,398,
334,390,
337,387,
335,379,
334,374,
332,371,
330,369,
333,365,
334,366,
334,369,
329,368,
330,372,
332,374,
332,380,
330,385,
330,386,
330,393,
330,401,
330,408,
331,417,
329,424,
329,433,
330,440,
330,452,
329,461,
328,472,
328,482,
328,490,
329,498,
328,506,
330,514,
327,519,
328,527,
329,532,
330,539,
329,543,
327,547,
332,551,
332,553,
334,555,
335,556,
332,556,
334,555,
332,552,
332,551,
334,549,
335,546,
334,541,
335,539,
333,535,
336,530,
334,526,
332,519,
333,514,
335,509,
332,506,
331,499,
331,494,
332,491,
332,486,
330,480,
330,475,
328,469,
329,465,
331,459,
328,455,
326,449,
326,445,
331,439,
331,438,
327,435,
326,429,
327,428,
326,428,
329,427,
328,425,
329,427,
327,423,
330,425,
330,426,
328,427,
332,428,
329,428,
330,427,
333,427,
334,426,
332,429,
330,430,
328,429,
331,430,
331,432,
330,433,
327,433,
330,437,
328,437,
331,440,
330,442,
327,441,
326,445,
330,444,
332,448,
330,448,
329,450,
329,448,
331,450,
327,451,
328,453,
328,452,
326,453,
328,454,
328,455,
328,458,
325,459,
325,460,
327,463,
325,468,
325,473,
324,478,
322,486,
324,494,
326,505,
329,518,
326,529,
328,543,
330,558,
335,573,
335,590,
333,604,
334,622,
334,639,
338,655,
333,671,
335,687,
332,701,
333,715,
335,726,
335,737,
335,746,
334,752,
334,758,
337,760,
337,762,
341,763,
337,762,
338,758,
341,754,
340,748,
339,742,
339,731,
340,723,
340,710,
341,699,
342,685,
341,670,
341,655,
342,640,
343,626,
341,610,
342,596,
343,578,
344,563,
343,548,
343,532,
345,517,
343,502,
345,488,
348,477,
345,464,
344,451,
342,436,
344,429,
342,418,
341,411,
337,403,
337,395,
336,386,
335,382,
333,378,
331,372,
332,370,
332,367,
332,367,
329,367,
329,367,
324,371,
329,372,
330,376,
333,378,
334,386,
330,392,
334,399,
339,406,
336,414,
334,422,
335,432,
335,438,
336,447,
337,458,
336,468,
335,476,
335,485,
336,492,
335,501,
335,509,
333,515,
336,522,
331,528,
333,534,
330,539,
331,542,
324,546,
331,546,
330,551,
326,552,
326,553,
323,555,
327,553,
327,551,
325,550,
325,546,
322,543,
326,540,
324,535,
328,531,
327,526,
327,520,
331,517,
331,512,
329,508,
328,501,
329,497,
328,491,
331,487,
331,483,
331,476,
330,472,
331,466,
334,464,
334,459,
333,453,
333,451,
333,447,
334,444,
335,443,
331,441,
334,440,
336,437,
337,438,
339,437,
337,434,
335,432,
337,431,
337,430,
336,431,
335,431,
334,430,
333,430,
336,430,
336,430,
334,431,
330,429,
333,432,
331,430,
331,432,
332,435,
331,435,
330,437,
332,436,
330,440,
332,441,
329,444,
329,444,
332,446,
333,449,
333,450,
330,452,
330,449,
335,452,
336,454,
331,454,
332,453,
331,452,
333,454,
333,455,
331,456,
329,456,
329,458,
330,457,
331,461,
328,461,
325,467,
327,472,
329,476,
329,485,
327,496,
324,505,
322,517,
323,531,
323,543,
321,563,
320,579,
319,596,
321,613,
321,631,
323,653,
324,670,
325,685,
326,704,
328,719,
331,736,
332,751,
330,762,
330,772,
334,781,
334,788,
334,794,
333,796,
337,797,
335,795,
339,794,
338,790,
338,783,
336,775,
342,765,
337,755,
338,743,
341,729,
341,713,
345,700,
341,683,
342,667,
340,650,
343,633,
345,615,
343,598,
343,580,
342,562,
342,547,
344,530,
346,515,
344,501,
341,488,
342,474,
346,464,
345,452,
344,442,
340,432,
340,423,
341,414,
343,407,
342,402,
340,395,
338,390,
338,384,
340,381,
341,382,
337,378,
336,378,
335,379,
334,381,
333,383,
330,388,
328,392,
331,397,
333,403,
330,409,
328,417,
327,425,
326,433,
326,441,
326,450,
325,458,
323,467,
327,477,
324,482,
327,494,
324,501,
324,508,
326,516,
329,522,
328,528,
328,533,
328,538,
324,543,
330,546,
329,549,
329,552,
327,553,
326,553,
328,553,
329,552,
330,552,
330,550,
328,548,
332,546,
333,544,
335,539,
334,536,
336,531,
337,528,
340,523,
337,517,
336,511,
338,506,
340,500,
343,497,
343,491,
342,486,
341,479,
342,475,
343,469,
340,464,
339,461,
338,456,
338,452,
337,446,
337,445,
334,441,
331,437,
330,436,
332,432,
331,430,
331,427,
326,427,
329,424,
328,423,
329,424,
326,424,
327,423,
328,425,
326,423,
326,426,
325,427,
325,430,
324,430,
331,432,
330,433,
331,434,
328,436,
327,439,
328,439,
330,442,
328,444,
326,446,
326,445,
331,449,
330,451,
331,451,
330,452,
330,452,
331,454,
332,456,
332,457,
330,456,
329,456,
331,456,
332,457,
330,457,
327,455,
329,457,
329,457,
329,456,
328,459,
329,458,
328,460,
327,459,
327,462,
330,467,
328,471,
326,479,
325,484,
325,494,
324,504,
326,516,
325,530,
325,544,
330,557,
330,574,
332,591,
331,608,
333,625,
333,642,
334,660,
334,676,
335,693,
337,708,
337,720,
341,737,
340,749,
339,757,
339,766,
342,772,
337,778,
340,779,
339,782,
337,778,
336,776,
339,774,
335,767,
337,759,
337,750,
340,738,
339,728,
338,715,
337,701,
336,686,
337,670,
337,653,
336,638,
335,622,
337,604,
339,586,
338,569,
341,555,
335,537,
338,525,
340,508,
339,496,
340,482,
337,471,
337,458,
336,448,
338,440,
338,428,
338,423,
335,413,
338,407,
335,400,
338,394,
339,389,
337,382,
337,381,
338,380,
338,377,
338,380,
336,382,
339,382,
337,385,
335,390,
336,395,
330,401,
335,408,
333,413,
335,424,
332,430,
333,438,
334,446,
337,453,
337,462,
337,471,
336,479,
339,487,
339,493,
341,500,
342,511,
339,517,
339,524,
342,531,
341,537,
339,541,
338,545,
338,548,
337,553,
336,552,
337,555,
337,554,
334,555,
334,554,
335,552,
335,550,
328,546,
329,544,
327,540,
328,537,
328,532,
325,528,
325,523,
324,518,
325,513,
326,508,
327,503,
327,499,
330,492,
330,488,
334,483,
332,477,
329,472,
332,468,
335,464,
335,460,
333,456,
332,454,
336,449,
337,445,
337,442,
334,440,
332,437,
334,436,
331,432,
332,432,
332,434,
330,431,
331,431,
331,430,
334,429,
331,430,
329,431,
331,430,
332,431,
333,431,
331,432,
329,433,
328,435,
334,436,
330,437,
330,439,
327,440,
324,440,
326,441,
327,442,
322,444,
322,446,
323,448,
323,448,
323,450,
322,451,
320,451,
322,456,
323,454,
324,456,
326,456,
325,456,
323,455,
324,455,
328,456,
328,456,
331,456,
328,456,
331,456,
332,457,
332,458,
331,458,
330,457,
333,460,
331,460,
330,464,
329,467,
327,471,
329,475,
327,481,
329,490,
329,501,
326,510,
326,525,
327,538,
329,555,
329,572,
328,590,
328,603,
330,624,
330,642,
328,658,
330,674,
331,689,
329,705,
332,720,
331,731,
329,743,
328,752,
333,761,
330,767,
331,773,
331,775,
331,774,
332,776,
334,771,
335,767,
335,760,
338,752,
341,741,
342,731,
342,719,
340,704,
342,693,
345,677,
345,661,
342,648,
346,628,
345,609,
348,591,
348,575,
347,559,
347,544,
343,528,
345,511,
347,497,
345,484,
345,471,
342,458,
345,447,
345,434,
344,424,
342,415,
340,405,
340,398,
338,388,
337,383,
336,375,
332,372,
334,368,
332,363,
335,365,
335,369,
332,370,
330,370,
334,375,
332,378,
333,383,
330,388,
329,395,
332,400,
331,409,
328,417,
329,426,
327,434,
331,444,
331,456,
328,465,
330,475,
328,485,
332,494,
332,506,
331,514,
330,521,
330,529,
332,534,
332,542,
331,547,
330,548,
332,555,
331,558,
333,561,
334,563,
333,564,
332,565,
333,564,
335,562,
333,561,
335,559,
331,555,
336,553,
337,549,
337,546,
334,542,
335,538,
334,532,
337,527,
338,523,
336,518,
332,511,
336,506,
335,498,
335,493,
334,488,
335,480,
335,475,
335,470,
337,468,
337,463,
333,458,
334,453,
334,451,
335,446,
334,443,
329,440,
329,437,
327,434,
328,432,
326,431,
326,430,
323,431,
327,430,
330,428,
330,429,
329,428,
330,427,
331,426,
333,428,
332,430,
331,429,
332,431,
335,432,
336,435,
335,437,
333,434,
334,438,
336,438,
339,439,
335,441,
337,442,
335,442,
336,443,
337,446,
336,447,
335,449,
332,451,
331,452,
334,452,
332,454,
329,455,
327,457,
324,459,
327,460,
326,460,
325,465,
324,467,
327,471,
327,475,
329,483,
330,492,
329,501,
330,512,
332,520,
332,534,
329,550,
329,567,
331,582,
332,598,
331,614,
333,629,
331,646,
331,660,
334,677,
332,693,
335,709,
333,722,
331,735,
337,745,
336,753,
335,763,
332,768,
330,771,
333,773,
334,775,
333,772,
331,767,
331,765,
335,757,
336,749,
337,740,
335,726,
332,716,
336,703,
337,691,
336,676,
338,659,
335,642,
336,627,
338,610,
340,594,
338,577,
336,560,
339,545,
336,528,
336,513,
332,497,
334,482,
334,469,
335,458,
334,447,
334,439,
331,426,
334,418,
332,408,
335,401,
334,394,
337,386,
335,379,
339,372,
336,370,
336,368,
338,367,
337,363,
339,366,
337,368,
337,372,
336,377,
333,382,
337,386,
333,395,
333,403,
332,410,
331,420,
331,429,
333,438,
332,447,
330,456,
333,466,
334,474,
335,484,
333,493,
331,500,
333,509,
335,518,
336,523,
335,531,
335,534,
334,541,
335,544,
335,550,
336,554,
335,556,
336,556,
334,558,
338,557,
339,559,
336,557,
334,555,
337,551,
335,548,
335,545,
331,540,
332,536,
331,530,
330,524,
329,517,
326,513,
325,507,
328,502,
325,494,
326,490,
328,484,
325,479,
328,474,
328,466,
328,465,
328,460,
326,457,
326,452,
327,448,
327,444,
328,444,
325,439,
327,437,
328,434,
329,432,
331,432,
329,431,
325,428,
330,429,
330,430,
330,428,
326,429,
328,430,
330,431,
330,432,
333,432,
330,433,
329,433,
332,433,
334,433,
333,437,
332,435,
330,436,
330,434,
332,435,
335,433,
330,436,
331,437,
329,439,
334,441,
329,444,
330,444,
330,446,
330,448,
330,447,
327,449,
327,449,
327,451,
327,453,
327,453,
328,453,
327,455,
322,455,
325,458,
326,458,
328,463,
330,469,
329,470,
327,477,
331,483,
330,491,
330,504,
332,514,
329,525,
330,541,
327,557,
329,574,
328,591,
325,609,
329,627,
325,647,
326,666,
326,685,
326,704,
327,721,
329,740,
329,755,
328,769,
327,782,
331,792,
330,801,
330,807,
328,811,
333,814,
334,813,
337,812,
336,808,
339,803,
340,795,
341,785,
344,776,
345,765,
343,752,
344,735,
347,718,
348,702,
347,685,
345,667,
345,648,
349,631,
349,610,
349,592,
351,575,
346,557,
348,540,
349,526,
348,511,
348,499,
345,484,
347,474,
346,460,
349,452,
350,444,
347,434,
347,428,
349,420,
346,410,
345,407,
342,402,
341,397,
340,393,
340,391,
338,389,
337,389,
333,388,
336,389,
332,391,
330,394,
331,397,
331,401,
333,407,
331,413,
329,421,
329,428,
327,435,
329,443,
330,451,
330,459,
326,469,
329,477,
328,485,
329,493,
329,503,
327,506,
327,513,
330,519,
332,525,
328,532,
329,537,
328,543,
330,547,
332,550,
333,556,
333,557,
334,559,
334,559,
334,558,
333,558,
335,555,
333,551,
334,547,
339,541,
339,537,
339,534,
335,526,
341,524,
338,516,
341,518,
340,516,
339,513,
340,509,
341,505,
337,503,
340,498,
337,493,
338,485,
335,478,
336,473,
334,468,
335,463,
334,457,
337,452,
334,450,
334,443,
333,440,
332,436,
331,435,
332,433,
331,431,
330,426,
329,424,
330,423,
328,424,
329,426,
325,425,
330,428,
329,429,
330,433,
327,436,
328,438,
325,441,
328,443,
330,447,
330,450,
329,452,
327,456,
329,459,
331,462,
328,467,
329,470,
328,473,
330,474,
332,478,
328,479,
331,476,
327,473,
328,469,
333,464,
335,460,
334,456,
332,451,
334,449,
332,442,
334,442,
333,439,
333,438,
330,436,
335,435,
332,432,
329,433,
329,434,
325,434,
326,434,
326,436,
326,438,
323,439,
320,442,
324,449,
322,455,
323,464,
321,473,
322,482,
323,495,
323,511,
323,526,
323,543,
326,561,
328,580,
329,600,
330,621,
325,638,
327,659,
331,680,
332,699,
333,718,
332,733,
333,749,
331,762,
332,773,
334,784,
334,794,
333,799,
336,804,
336,805,
334,806,
334,806,
336,800,
338,794,
339,787,
341,778,
344,769,
342,756,
347,744,
346,728,
348,714,
347,698,
344,680,
349,665,
346,644,
349,630,
350,614,
348,597,
349,580,
348,564,
349,549,
349,535,
345,518,
345,501,
345,485,
345,471,
342,459,
341,445,
341,434,
344,425,
343,417,
341,408,
339,399,
336,391,
340,383,
340,379,
337,374,
336,369,
335,366,
335,366,
335,367,
334,369,
330,368,
330,374,
330,378,
330,383,
329,392,
329,398,
327,406,
329,412,
329,422,
328,430,
326,439,
326,446,
326,456,
329,465,
328,475,
327,482,
326,489,
326,498,
325,507,
326,515,
325,525,
327,530,
330,538,
331,542,
331,547,
336,550,
334,552,
334,555,
331,553,
330,555,
329,556,
332,556,
327,550,
329,551,
329,547,
325,546,
325,545,
325,542,
328,538,
325,537,
327,535,
325,529,
324,525,
327,519,
325,512,
322,507,
325,501,
324,496,
326,488,
329,485,
328,479,
327,471,
328,467,
329,461,
331,456,
333,450,
331,445,
332,442,
330,437,
334,435,
335,433,
335,430,
335,428,
336,424,
336,423,
337,422,
336,421,
335,419,
337,419,
337,420,
337,420,
337,420,
335,420,
333,421,
333,422,
331,423,
333,424,
329,425,
332,427,
330,425,
331,427,
332,428,
329,426,
327,431,
331,431,
330,435,
330,438,
330,438,
332,435,
332,437,
329,437,
332,436,
330,438,
333,436,
332,436,
328,439,
329,439,
329,441,
329,442,
332,443,
329,444,
330,447,
330,448,
327,450,
330,449,
331,448,
329,449,
326,448,
325,447,
330,446,
330,448,
327,447,
328,446,
325,449,
326,453,
326,463,
329,471,
327,484,
326,499,
329,511,
332,527,
332,544,
331,562,
330,579,
332,602,
337,621,
335,642,
335,662,
334,680,
337,696,
337,711,
340,725,
340,737,
339,745,
342,755,
340,760,
344,766,
342,768,
344,766,
343,767,
347,760,
347,757,
343,750,
346,741,
343,728,
344,720,
345,709,
343,694,
343,680,
342,664,
345,649,
344,635,
343,617,
342,602,
338,583,
344,570,
343,556,
343,543,
342,528,
339,514,
342,500,
342,487,
341,477,
336,464,
339,454,
340,444,
341,433,
339,424,
336,414,
338,405,
336,397,
339,390,
336,384,
337,379,
331,374,
333,371,
334,369,
332,368,
331,369,
327,369,
329,371,
332,375,
329,379,
331,386,
331,393,
332,400,
335,405,
333,414,
332,424,
332,430,
336,441,
335,447,
336,458,
335,468,
334,477,
336,485,
338,495,
335,504,
338,512,
336,520,
329,526,
333,533,
335,538,
333,543,
332,547,
330,552,
333,553,
330,556,
332,556,
330,558,
330,556,
331,557,
331,557,
330,556,
328,552,
331,551,
331,545,
333,542,
333,537,
329,532,
333,525,
334,519,
336,514,
334,507,
334,503,
332,497,
333,492,
334,486,
335,481,
335,476,
335,471,
335,465,
337,461,
335,458,
332,453,
332,449,
333,446,
333,441,
333,438,
331,435,
327,432,
333,430,
330,428,
328,426,
333,425,
328,423,
332,423,
331,420,
335,422,
336,423,
336,423,
335,423,
343,424,
341,423,
339,424,
340,424,
340,424,
341,426,
341,427,
342,431,
340,431,
335,433,
340,435,
335,437,
338,439,
337,441,
335,441,
334,444,
334,444,
335,445,
331,446,
329,448,
331,449,
333,451,
330,452,
325,451,
328,454,
327,454,
330,456,
329,459,
328,460,
327,463,
327,463,
328,465,
331,470,
328,476,
327,483,
328,490,
328,500,
326,511,
327,524,
325,537,
328,552,
329,566,
327,586,
330,602,
327,617,
329,635,
330,651,
331,669,
330,686,
328,700,
332,716,
330,727,
330,741,
334,753,
336,759,
335,768,
337,773,
339,775,
337,777,
340,776,
336,774,
340,768,
340,763,
341,753,
343,743,
341,728,
345,717,
344,703,
341,688,
342,671,
341,657,
343,640,
344,625,
346,611,
341,593,
343,577,
342,561,
346,546,
345,534,
340,516,
343,504,
342,489,
341,477,
339,466,
339,454,
338,443,
336,432,
337,424,
335,417,
335,410,
334,401,
332,395,
334,391,
333,386,
332,383,
332,379,
333,375,
333,374,
333,375,
331,374,
331,375,
332,378,
331,378,
331,384,
330,388,
327,395,
330,402,
328,407,
329,418,
328,427,
329,436,
327,445,
329,455,
329,464,
326,475,
326,485,
325,495,
324,503,
324,512,
324,520,
323,525,
323,531,
328,538,
329,543,
329,546,
329,551,
332,552,
331,553,
333,556,
330,556,
332,554,
331,553,
334,549,
338,549,
335,545,
333,540,
334,538,
334,533,
335,529,
335,524,
335,520,
330,516,
335,509,
336,505,
335,500,
336,497,
335,490,
332,482,
339,478,
338,472,
335,467,
338,463,
337,457,
338,453,
337,448,
341,445,
337,440,
339,436,
337,433,
335,432,
337,432,
335,428,
336,429,
333,426,
335,428,
331,428,
332,429,
328,428,
329,429,
329,429,
326,429,
324,430,
325,431,
328,433,
327,436,
326,438,
324,439,
324,440,
330,442,
328,445,
330,446,
330,446,
330,448,
333,447,
332,449,
333,451,
331,450,
329,451,
333,454,
333,454,
334,457,
329,453,
329,457,
331,457,
332,457,
334,458,
329,459,
326,461,
327,462,
329,468,
327,472,
325,477,
326,480,
327,489,
324,495,
326,507,
326,519,
324,532,
324,546,
325,561,
323,577,
326,594,
322,609,
324,627,
325,643,
326,661,
329,678,
326,693,
328,709,
328,722,
329,737,
329,750,
328,761,
327,768,
332,776,
330,781,
333,784,
334,787,
337,786,
339,784,
341,782,
339,776,
343,769,
341,760,
347,748,
346,736,
347,725,
347,709,
345,695,
347,677,
349,662,
348,646,
345,628,
348,612,
349,593,
350,577,
351,561,
345,543,
344,530,
344,513,
343,500,
342,486,
339,475,
339,464,
338,453,
339,441,
337,432,
334,424,
332,415,
333,408,
333,399,
333,395,
329,390,
329,385,
332,382,
333,380,
332,379,
333,380,
332,380,
332,383,
334,383,
337,389,
336,394,
336,399,
336,405,
338,409,
338,418,
337,427,
337,436,
336,442,
338,452,
334,461,
337,470,
337,478,
335,486,
337,494,
337,504,
336,510,
335,517,
333,522,
335,530,
335,533,
332,538,
329,542,
330,546,
332,546,
330,547,
331,549,
330,547,
330,548,
332,546,
333,545,
332,544,
331,539,
329,535,
331,532,
332,527,
332,524,
330,518,
331,513,
331,507,
334,501,
331,496,
331,491,
333,485,
331,480,
333,474,
332,468,
333,464,
327,458,
333,455,
332,449,
332,445,
331,444,
331,438,
331,436,
327,432,
331,429,
331,428,
326,425,
329,424,
331,420,
329,422,
330,422,
328,421,
328,420,
331,420,
329,421,
333,421,
328,422,
329,420,
332,422,
333,422,
332,423,
331,426,
331,425,
334,427,
334,429,
332,430,
331,433,
329,433,
334,434,
334,438,
331,439,
328,440,
328,443,
330,445,
329,447,
328,448,
327,449,
323,450,
325,451,
326,452,
327,454,
327,454,
323,454,
323,455,
325,456,
325,456,
323,459,
323,463,
320,466,
326,471,
325,479,
326,488,
325,497,
326,511,
330,524,
332,539,
330,555,
332,570,
334,589,
333,603,
337,624,
338,642,
337,661,
334,682,
337,698,
337,716,
336,733,
338,749,
335,758,
336,774,
339,786,
337,795,
337,800,
338,806,
339,808,
342,811,
340,809,
340,805,
339,799,
341,793,
338,784,
340,775,
342,762,
341,749,
343,735,
345,720,
345,706,
341,688,
342,673,
346,655,
347,637,
343,618,
345,600,
345,582,
347,564,
345,548,
343,533,
343,517,
341,501,
342,487,
342,473,
337,461,
339,448,
337,438,
338,428,
339,420,
336,413,
337,406,
333,401,
337,396,
336,392,
336,390,
336,388,
331,384,
334,385,
332,383,
335,387,
335,391,
335,393,
332,396,
335,402,
334,407,
330,413,
329,420,
329,425,
328,433,
328,442,
327,450,
326,457,
327,463,
327,473,
330,481,
329,490,
327,496,
329,504,
331,510,
332,516,
331,522,
330,526,
332,531,
332,535,
332,539,
331,544,
329,543,
331,547,
334,546,
335,547,
331,547,
334,545,
331,543,
334,541,
333,536,
337,532,
336,529,
333,525,
335,519,
338,513,
334,509,
333,504,
333,497,
334,493,
334,487,
334,482,
332,478,
331,474,
332,467,
333,460,
333,457,
331,453,
331,447,
333,445,
332,438,
334,438,
333,435,
333,433,
331,431,
334,428,
334,426,
332,425,
332,425,
334,423,
330,420,
333,419,
332,418,
334,419,
333,420,
337,419,
333,420,
335,420,
337,422,
333,421,
336,422,
336,424,
338,426,
335,426,
335,427,
337,427,
335,429,
334,432,
331,432,
333,435,
334,434,
334,436,
332,439,
331,439,
330,441,
328,440,
331,443,
333,443,
330,447,
327,446,
330,449,
331,449,
332,453,
331,453,
331,454,
332,455,
334,457,
331,459,
334,461,
331,462,
330,463,
330,466,
330,471,
329,477,
324,484,
328,492,
328,500,
329,513,
328,526,
328,540,
326,555,
330,573,
327,589,
325,607,
328,626,
328,645,
330,660,
332,679,
333,698,
332,713,
330,730,
335,742,
336,754,
336,765,
335,777,
337,782,
339,789,
342,795,
342,798,
341,797,
343,797,
344,792,
346,789,
344,780,
342,769,
344,759,
349,746,
349,734,
350,720,
350,703,
349,685,
353,665,
354,647,
350,627,
352,610,
349,591,
349,572,
352,555,
350,538,
347,522,
344,505,
343,491,
346,477,
346,467,
341,456,
342,444,
343,433,
341,422,
338,416,
339,406,
338,399,
339,394,
334,386,
334,384,
332,380,
334,379,
331,377,
332,377,
332,377,
327,378,
330,381,
327,382,
327,388,
328,394,
326,399,
326,405,
324,411,
329,420,
326,428,
326,437,
324,446,
325,454,
326,463,
329,472,
328,481,
325,489,
327,499,
328,506,
328,516,
328,521,
324,527,
327,534,
325,538,
330,544,
331,549,
329,551,
330,552,
330,552,
331,553,
330,555,
331,553,
330,552,
331,550,
333,548,
330,546,
330,542,
330,538,
331,534,
332,528,
331,526,
332,520,
330,516,
333,511,
332,504,
333,500,
333,493,
330,487,
331,482,
330,473,
331,471,
331,464,
330,460,
330,453,
330,448,
325,444,
329,440,
326,437,
327,433,
329,429,
331,428,
327,426,
327,424,
330,421,
333,421,
332,420,
335,420,
335,420,
334,418,
338,419,
340,420,
337,422,
335,422,
336,423,
336,425,
336,426,
337,428,
332,427,
334,431,
333,431,
333,435,
332,438,
331,439,
331,440,
331,441,
334,443,
333,444,
331,445,
332,444,
330,446,
331,448,
331,449,
329,451,
327,452,
327,454,
331,455,
329,457,
330,459,
327,460,
326,460,
327,462,
329,467,
327,471,
325,476,
324,483,
324,489,
325,500,
323,511,
323,524,
325,536,
327,553,
328,569,
328,582,
325,602,
324,615,
328,633,
328,651,
328,670,
328,686,
328,701,
332,716,
332,728,
332,740,
330,751,
331,759,
334,766,
336,772,
335,775,
337,776,
338,775,
337,772,
342,769,
344,762,
340,753,
341,747,
346,734,
345,724,
344,712,
344,697,
343,683,
345,666,
348,651,
346,635,
347,618,
343,601,
346,583,
348,567,
346,550,
346,535,
344,518,
345,503,
345,489,
345,474,
341,461,
339,449,
342,437,
339,426,
340,415,
338,406,
335,396,
335,391,
334,380,
336,377,
334,372,
331,369,
331,368,
333,366,
330,366,
328,366,
330,368,
326,371,
329,374,
330,381,
328,387,
330,394,
327,401,
331,411,
331,419,
329,429,
330,438,
330,447,
333,455,
334,466,
332,475,
332,483,
332,494,
334,501,
334,511,
333,518,
332,523,
333,531,
334,536,
334,540,
334,546,
335,548,
332,551,
335,551,
335,553,
333,558,
334,555,
330,554,
334,553,
333,550,
333,547,
330,543,
332,539,
334,536,
334,531,
333,525,
333,521,
333,516,
336,509,
337,502,
339,498,
339,494,
338,486,
342,481,
341,473,
343,470,
342,465,
343,462,
342,456,
346,452,
344,447,
344,444,
342,442,
339,436,
340,434,
341,431,
338,429,
338,427,
332,426,
335,426,
334,425,
332,423,
328,423,
327,423,
328,422,
326,424,
325,425,
322,424,
324,425,
322,426,
324,428,
324,430,
319,427,
320,431,
319,431,
323,434,
320,436,
321,436,
320,436,
323,437,
325,438,
325,441,
323,445,
324,444,
324,445,
326,446,
326,448,
327,450,
328,452,
326,453,
330,455,
329,460,
331,464,
331,470,
332,478,
330,486,
330,498,
332,511,
330,525,
335,542,
333,554,
334,575,
335,593,
336,613,
336,629,
338,648,
338,667,
337,686,
335,703,
333,719,
338,734,
340,749,
340,761,
341,773,
335,782,
341,792,
337,795,
337,801,
338,804,
336,802,
340,798,
342,795,
340,790,
339,782,
341,772,
343,761,
346,748,
345,737,
343,718,
344,703,
344,686,
347,671,
346,654,
344,636,
343,617,
345,598,
348,580,
345,565,
346,549,
345,532,
346,516,
347,500,
344,487,
343,473,
340,460,
342,448,
344,437,
343,427,
341,417,
340,409,
338,400,
339,394,
339,389,
336,385,
334,379,
336,376,
335,373,
336,375,
334,374,
333,375,
333,375,
332,381,
330,385,
332,390,
328,396,
329,402,
329,408,
332,417,
327,426,
327,433,
328,444,
331,453,
331,462,
329,472,
326,479,
327,488,
328,495,
326,503,
326,512,
326,518,
328,524,
329,529,
331,536,
332,540,
329,542,
330,548,
331,549,
332,550,
334,551,
333,551,
334,548,
334,548,
338,546,
338,542,
337,540,
337,536,
339,532,
340,528,
341,523,
338,519,
336,516,
339,511,
341,506,
341,501,
342,495,
336,491,
341,485,
339,479,
341,476,
340,470,
337,464,
334,460,
336,453,
338,451,
335,448,
335,443,
334,438,
336,433,
337,430,
335,428,
334,425,
333,419,
335,419,
332,418,
334,419,
333,416,
331,416,
332,417,
333,418,
328,416,
330,418,
328,419,
333,419,
330,420,
332,424,
329,425,
331,426,
332,428,
331,428,
331,430,
329,430,
327,434,
329,435,
331,435,
330,439,
330,440,
328,441,
329,443,
330,446,
330,446,
329,449,
329,452,
329,452,
330,454,
329,458,
330,461,
330,465,
328,471,
331,476,
332,485,
330,496,
329,507,
330,521,
330,534,
331,551,
331,569,
330,585,
330,605,
329,623,
331,646,
331,667,
330,687,
331,703,
334,723,
331,737,
331,756,
332,770,
335,781,
336,793,
336,800,
340,807,
341,812,
342,814,
344,817,
344,815,
348,814,
347,807,
348,800,
350,789,
352,780,
349,767,
349,753,
351,737,
354,722,
351,708,
351,692,
353,672,
355,656,
353,637,
357,622,
356,604,
351,586,
352,567,
352,550,
355,536,
351,521,
347,506,
348,492,
348,479,
348,466,
346,456,
343,445,
342,434,
338,425,
339,414,
337,406,
337,397,
334,389,
337,385,
333,379,
334,376,
331,373,
332,372,
332,375,
329,374,
332,380,
330,382,
332,386,
331,389,
332,396,
333,404,
332,409,
330,417,
331,424,
331,432,
333,442,
331,451,
332,460,
331,468,
333,478,
336,488,
335,497,
331,504,
331,512,
332,518,
332,528,
333,534,
328,539,
328,543,
331,547,
329,548,
331,553,
326,550,
330,553,
328,552,
331,551,
330,549,
328,547,
328,542,
330,538,
331,534,
333,531,
330,525,
331,521,
334,516,
333,509,
334,504,
332,498,
334,493,
330,486,
334,480,
333,476,
331,472,
330,465,
327,460,
333,454,
333,449,
330,445,
328,440,
327,438,
328,431,
329,431,
328,428,
331,428,
330,422,
331,423,
332,420,
333,420,
332,419,
329,417,
334,416,
335,418,
335,418,
334,418,
332,416,
335,421,
336,422,
332,421,
331,422,
331,424,
333,423,
334,425,
332,427,
330,429,
330,430,
329,431,
330,432,
329,435,
326,434,
326,438,
326,439,
327,443,
327,444,
324,446,
325,448,
325,448,
328,448,
328,451,
326,452,
327,450,
325,450,
329,453,
326,455,
326,457,
326,460,
326,461,
329,466,
326,472,
327,480,
327,488,
326,501,
327,512,
329,528,
329,543,
327,559,
327,580,
327,595,
332,619,
331,639,
331,659,
333,678,
336,700,
336,720,
337,738,
336,756,
337,773,
342,785,
341,799,
342,809,
345,819,
346,825,
347,830,
346,830,
351,830,
350,829,
351,824,
354,817,
355,811,
352,800,
353,786,
352,774,
354,757,
357,741,
352,725,
350,705,
351,689,
351,669,
351,650,
352,631,
349,614,
349,594,
350,576,
350,561,
348,545,
347,529,
347,512,
344,498,
346,485,
342,473,
340,461,
340,451,
340,440,
338,429,
337,421,
336,414,
332,406,
334,401,
332,393,
333,390,
331,388,
329,386,
329,386,
328,382,
330,386,
331,388,
331,391,
331,393,
330,397,
331,401,
330,406,
330,414,
328,418,
331,424,
330,431,
329,438,
331,446,
331,453,
332,460,
334,469,
332,477,
330,486,
332,491,
335,499,
337,506,
337,510,
336,515,
335,519,
337,525,
339,528,
339,531,
335,532,
336,536,
335,537,
338,537,
335,535,
334,536,
333,533,
332,532,
334,527,
332,526,
335,520,
332,515,
334,509,
334,503,
332,498,
331,494,
330,490,
330,485,
332,481,
328,477,
328,471,
326,466,
325,462,
326,455,
328,451,
325,445,
325,439,
326,434,
327,429,
327,429,
329,424,
329,422,
327,417,
331,416,
330,414,
327,411,
328,411,
327,411,
331,408,
331,408,
330,409,
328,409,
328,409,
331,410,
330,411,
332,414,
331,414,
331,414,
332,418,
334,419,
335,422,
332,423,
333,424,
333,427,
334,428,
333,428,
331,430,
330,433,
334,435,
335,437,
335,439,
332,441,
328,444,
332,444,
333,446,
333,446,
331,448,
332,448,
334,447,
333,448,
333,449,
333,449,
333,450,
335,451,
337,450,
334,451,
332,452,
331,454,
331,457,
331,457,
333,460,
332,463,
328,464,
333,469,
328,471,
332,481,
329,490,
330,501,
331,511,
332,524,
330,537,
329,553,
329,572,
329,588,
331,605,
331,625,
332,645,
333,663,
336,682,
338,703,
337,721,
337,739,
338,754,
336,768,
338,781,
339,793,
340,803,
342,809,
340,814,
345,816,
345,816,
346,817,
343,810,
343,805,
345,797,
346,787,
349,777,
348,762,
348,747,
349,730,
350,714,
348,699,
350,680,
350,660,
351,641,
351,624,
350,605,
351,586,
348,568,
347,550,
347,532,
343,517,
345,502,
342,489,
341,473,
342,460,
341,450,
339,439,
337,427,
337,419,
336,409,
336,402,
337,396,
335,390,
333,384,
333,382,
330,379,
330,376,
328,376,
324,377,
330,377,
330,381,
327,384,
329,387,
329,391,
331,399,
331,405,
331,413,
329,420,
329,430,
329,438,
329,447,
331,456,
329,465,
330,473,
329,482,
331,491,
331,501,
327,506,
331,515,
333,522,
334,529,
329,537,
330,540,
330,545,
330,547,
330,549,
330,552,
331,552,
328,551,
330,551,
334,549,
334,549,
330,546,
333,543,
332,539,
333,534,
332,530,
332,525,
334,519,
335,514,
334,508,
334,502,
330,496,
332,490,
331,485,
332,476,
332,474,
332,468,
331,464,
331,458,
332,454,
330,450,
329,444,
328,441,
328,436,
328,432,
328,429,
327,428,
326,423,
327,420,
331,419,
328,418,
329,417,
326,416,
327,415,
329,413,
331,414,
330,415,
327,414,
329,415,
330,415,
331,417,
333,418,
325,418,
328,419,
330,422,
331,424,
330,426,
331,429,
330,431,
333,432,
336,435,
338,435,
335,438,
335,438,
335,439,
338,441,
337,443,
336,446,
335,445,
334,446,
334,446,
336,449,
334,448,
332,448,
334,450,
332,449,
333,452,
332,453,
328,454,
330,455,
328,453,
328,459,
327,463,
324,467,
327,471,
327,480,
325,487,
325,497,
321,508,
322,521,
325,535,
325,551,
326,568,
325,585,
325,600,
330,621,
330,639,
330,659,
330,676,
330,693,
331,710,
334,728,
330,743,
334,755,
332,767,
336,776,
337,785,
339,791,
335,792,
341,796,
343,794,
346,791,
346,787,
347,781,
349,772,
350,760,
352,749,
353,736,
352,722,
352,706,
354,689,
353,673,
352,655,
351,638,
349,619,
350,602,
348,583,
348,565,
346,550,
343,532,
343,516,
344,500,
344,487,
343,474,
338,459,
343,448,
340,434,
342,425,
338,415,
339,407,
339,394,
341,387,
340,382,
339,376,
337,372,
336,366,
338,365,
338,364,
335,365,
334,366,
334,368,
338,372,
337,373,
336,381,
334,386,
332,393,
334,401,
334,409,
333,419,
335,426,
334,437,
335,447,
335,456,
334,466,
328,474,
330,484,
330,494,
331,500,
331,509,
330,515,
329,521,
330,527,
332,532,
329,538,
333,541,
331,543,
332,543,
333,545,
333,545,
335,545,
334,541,
335,542,
337,538,
337,536,
336,533,
335,529,
337,526,
338,519,
335,513,
337,508,
331,501,
334,497,
332,489,
334,486,
332,481,
332,476,
327,471,
336,465,
333,460,
332,455,
330,450,
330,446,
331,441,
332,439,
332,437,
328,433,
329,429,
329,426,
327,424,
327,423,
326,421,
327,419,
327,418,
327,418,
326,418,
326,417,
325,416,
327,416,
329,416,
327,417,
325,416,
329,417,
329,418,
330,419,
332,420,
328,421,
328,424,
330,425,
334,427,
332,429,
332,430,
329,433,
335,433,
334,433,
335,436,
334,436,
334,436,
335,439,
334,439,
334,440,
331,442,
332,444,
332,444,
331,446,
332,449,
330,450,
329,451,
333,454,
329,454,
333,460,
332,467,
333,473,
331,481,
335,491,
335,502,
334,515,
335,530,
335,544,
335,559,
333,578,
337,596,
336,614,
334,632,
337,651,
337,669,
334,687,
336,705,
333,722,
336,737,
336,749,
335,764,
332,774,
330,783,
333,792,
334,796,
331,800,
328,800,
332,801,
332,797,
335,792,
332,786,
335,776,
331,767,
335,754,
338,740,
338,727,
337,711,
339,692,
343,674,
344,656,
342,638,
345,619,
343,600,
344,581,
346,562,
342,546,
344,530,
343,514,
344,499,
344,485,
343,472,
343,460,
341,449,
342,439,
339,428,
343,421,
340,411,
342,404,
341,397,
343,390,
339,385,
340,381,
335,379,
334,372,
335,373,
337,373,
335,374,
334,376,
329,377,
333,382,
333,388,
332,393,
329,399,
330,406,
333,413,
331,422,
333,431,
329,438,
329,446,
334,453,
332,465,
329,471,
327,479,
328,487,
329,496,
330,502,
331,509,
331,516,
330,521,
332,527,
330,531,
334,535,
334,539,
332,539,
335,540,
336,541,
334,542,
336,541,
336,540,
336,537,
340,533,
338,530,
338,528,
338,524,
341,520,
341,513,
340,510,
339,506,
337,498,
338,493,
336,487,
339,484,
337,478,
336,470,
335,467,
338,462,
336,458,
334,452,
331,448,
325,443,
331,440,
329,437,
327,433,
327,428,
325,424,
327,422,
329,421,
328,416,
326,416,
326,412,
330,415,
329,413,
330,413,
329,412,
327,412,
331,412,
330,413,
326,414,
325,414,
326,417,
330,419,
331,421,
329,422,
326,424,
328,426,
326,427,
330,430,
331,433,
329,433,
328,434,
328,434,
331,436,
332,437,
332,438,
330,438,
329,440,
333,441,
332,443,
332,444,
330,445,
332,446,
334,446,
332,449,
331,450,
330,451,
334,453,
331,452,
334,457,
335,459,
332,461,
333,464,
334,472,
330,479,
332,488,
331,498,
326,511,
332,522,
332,540,
329,556,
329,574,
329,591,
330,612,
328,631,
327,652,
325,670,
325,688,
328,709,
331,728,
331,745,
329,761,
332,777,
335,790,
337,802,
338,811,
337,817,
339,823,
343,825,
346,829,
349,825,
348,820,
349,815,
348,805,
354,798,
353,786,
354,772,
354,757,
354,741,
356,724,
352,708,
352,688,
350,670,
349,651,
349,631,
345,611,
344,593,
341,575,
343,556,
341,538,
338,524,
339,508,
335,494,
336,482,
334,468,
336,458,
332,448,
332,437,
333,428,
336,418,
334,411,
334,405,
333,397,
331,391,
333,386,
333,382,
331,379,
331,376,
331,377,
335,377,
334,381,
332,382,
331,386,
329,391,
331,395,
331,401,
330,407,
328,413,
327,420,
330,428,
329,435,
330,445,
324,450,
323,459,
328,467,
328,474,
326,481,
326,487,
327,495,
329,499,
329,506,
334,513,
332,515,
333,519,
334,521,
336,525,
336,529,
338,529,
336,528,
339,529,
339,528,
339,528,
339,528,
335,526,
337,524,
338,518,
339,516,
338,512,
335,510,
338,506,
336,499,
335,497,
333,492,
333,486,
330,482,
332,472,
329,468,
332,465,
329,460,
327,455,
327,451,
326,447,
325,445,
324,439,
323,434,
326,431,
327,428,
325,426,
325,425,
325,421,
327,419,
327,418,
331,419,
328,417,
330,416,
333,413,
331,414,
333,413,
331,413,
330,414,
336,414,
334,415,
334,413,
336,415,
336,416,
337,417,
340,419,
337,422,
337,423,
337,424,
337,424,
337,425,
337,428,
334,430,
332,431,
331,431,
332,432,
331,433,
329,434,
325,435,
327,434,
327,435,
326,435,
326,437,
326,438,
327,439,
325,437,
327,439,
327,440,
327,441,
326,443,
328,441,
326,446,
325,448,
323,451,
326,454,
326,458,
327,463,
323,472,
323,479,
326,488,
328,499,
326,514,
329,529,
328,545,
327,559,
330,578,
330,597,
331,616,
330,636,
329,654,
331,673,
328,691,
328,709,
328,726,
329,742,
334,755,
336,768,
337,781,
337,787,
337,795,
337,801,
338,803,
338,806,
340,804,
342,800,
344,794,
347,789,
344,779,
346,768,
349,757,
349,744,
349,729,
349,716,
349,699,
348,681,
349,666,
350,645,
349,629,
347,611,
345,593,
346,576,
343,556,
347,541,
348,525,
342,508,
342,492,
343,477,
343,468,
341,456,
337,444,
336,436,
337,425,
337,416,
338,409,
333,402,
334,390,
336,386,
333,381,
334,377,
334,376,
332,372,
337,372,
335,371,
335,372,
330,375,
331,378,
334,384,
333,388,
332,395,
328,400,
330,408,
330,416,
334,423,
331,432,
330,440,
329,451,
331,457,
331,466,
330,475,
332,483,
333,490,
331,497,
333,503,
333,510,
333,516,
330,521,
332,524,
333,528,
333,532,
332,534,
329,537,
331,536,
331,537,
331,537,
332,536,
326,534,
331,531,
330,527,
333,525,
332,522,
332,518,
335,514,
336,507,
332,504,
335,500,
336,495,
335,487,
340,483,
339,479,
340,472,
338,468,
338,462,
340,458,
339,452,
340,449,
339,444,
336,438,
336,436,
335,432,
336,428,
333,425,
332,422,
334,420,
334,420,
334,417,
331,415,
332,415,
331,416,
335,416,
333,416,
333,415,
333,419,
333,418,
334,421,
333,425,
333,424,
331,425,
331,426,
330,427,
331,427,
330,430,
328,431,
327,431,
326,433,
327,435,
327,437,
326,438,
327,439,
328,439,
328,442,
326,442,
324,444,
326,444,
326,444,
327,447,
326,448,
325,449,
330,449,
329,448,
328,451,
326,451,
326,451,
326,451,
327,451,
324,452,
327,450,
327,452,
329,450,
328,452,
330,453,
329,451,
329,454,
329,455,
330,455,
330,456,
327,462,
328,464,
330,471,
328,478,
330,490,
327,503,
327,516,
332,533,
331,548,
333,566,
334,584,
335,600,
335,620,
337,637,
339,656,
334,674,
338,691,
335,705,
338,720,
339,734,
337,748,
336,759,
335,768,
337,774,
341,781,
339,783,
342,788,
342,785,
341,784,
344,779,
345,775,
344,765,
343,754,
346,743,
342,729,
346,716,
344,700,
343,685,
342,667,
346,649,
342,634,
345,617,
345,599,
344,581,
345,564,
347,549,
343,533,
339,517,
341,500,
341,486,
337,474,
340,462,
337,448,
333,435,
336,425,
336,416,
336,406,
336,398,
332,391,
335,384,
337,380,
334,374,
331,369,
332,368,
334,365,
335,367,
335,369,
333,368,
334,374,
334,379,
335,382,
334,388,
335,393,
334,400,
335,406,
336,414,
334,425,
335,432,
333,443,
333,452,
335,460,
334,468,
336,480,
333,488,
335,496,
336,504,
335,512,
332,518,
332,524,
331,530,
330,535,
330,542,
328,546,
328,546,
327,549,
331,549,
330,550,
329,550,
329,552,
329,548,
329,549,
331,548,
328,545,
330,543,
329,540,
330,536,
329,532,
328,529,
329,522,
325,516,
332,511,
330,504,
333,500,
332,494,
334,487,
335,480,
336,474,
340,470,
337,462,
339,458,
338,452,
340,449,
339,445,
338,438,
335,435,
333,431,
334,427,
333,426,
331,421,
329,419,
330,414,
331,415,
332,411,
332,412,
330,411,
330,412,
333,411,
327,412,
330,413,
329,414,
328,416,
330,417,
331,420,
330,421,
326,420,
328,424,
328,427,
329,432,
325,435,
323,436,
323,439,
325,440,
326,444,
324,446,
321,447,
323,448,
325,450,
326,450,
326,453,
324,454,
323,455,
329,456,
330,458,
331,459,
330,462,
328,462,
334,463,
334,467,
330,471,
328,476,
328,481,
329,488,
327,497,
325,507,
325,519,
324,534,
328,547,
331,563,
328,579,
330,593,
330,612,
333,628,
333,643,
334,663,
332,676,
330,691,
333,702,
334,717,
333,728,
333,742,
333,749,
334,758,
334,762,
335,767,
334,770,
336,771,
337,769,
339,764,
336,759,
340,754,
339,745,
341,734,
342,720,
343,709,
343,695,
342,679,
343,664,
345,646,
344,631,
343,613,
343,597,
339,580,
345,564,
343,547,
341,533,
342,517,
341,502,
346,488,
342,477,
346,464,
344,453,
343,440,
344,432,
345,423,
346,413,
343,405,
344,398,
343,390,
344,385,
345,382,
341,377,
341,375,
342,374,
341,375,
341,373,
339,373,
338,378,
337,380,
340,385,
335,391,
334,396,
333,403,
331,409,
335,417,
331,424,
332,435,
331,444,
334,452,
333,461,
332,471,
333,482,
328,488,
330,497,
330,503,
331,512,
327,517,
326,521,
324,528,
324,533,
325,539,
323,541,
325,544,
323,544,
324,545,
325,547,
324,548,
325,547,
324,543,
330,542,
328,539,
328,537,
328,534,
325,527,
329,523,
330,518,
329,516,
329,510,
330,505,
333,500,
332,494,
330,489,
333,483,
331,478,
333,472,
336,467,
336,464,
332,457,
334,453,
335,447,
335,444,
334,442,
332,435,
331,434,
333,431,
335,430,
335,427,
333,424,
335,423,
334,421,
338,421,
337,421,
336,419,
337,419,
335,419,
337,419,
339,421,
338,423,
337,423,
340,424,
342,425,
341,426,
338,427,
337,428,
338,431,
335,430,
336,433,
335,434,
332,435,
331,437,
332,436,
332,440,
330,440,
330,442,
329,441,
332,443,
330,446,
327,447,
327,448,
326,449,
330,452,
325,454,
325,461,
325,465,
324,472,
327,481,
325,489,
322,500,
326,513,
326,525,
328,541,
328,558,
328,574,
326,590,
324,608,
327,626,
326,643,
328,662,
325,677,
326,695,
326,710,
330,725,
329,737,
328,750,
330,758,
331,765,
333,771,
334,776,
334,779,
336,780,
336,778,
338,774,
339,770,
337,764,
338,755,
338,745,
340,734,
341,723,
340,709,
340,694,
339,679,
341,663,
345,647,
343,631,
340,613,
343,599,
343,579,
344,565,
341,550,
342,533,
342,519,
343,504,
345,490,
341,479,
342,467,
341,455,
342,444,
342,435,
340,428,
339,419,
337,411,
340,404,
341,397,
342,392,
339,388,
339,383,
339,381,
340,381,
339,380,
335,379,
335,381,
336,382,
336,385,
338,392,
334,394,
333,401,
333,407,
334,414,
333,424,
332,431,
329,436,
330,445,
330,454,
332,464,
330,471,
330,479,
330,487,
333,494,
333,502,
333,509,
333,515,
330,521,
335,525,
332,531,
332,535,
330,539,
332,540,
328,541,
330,543,
330,545,
329,543,
327,544,
331,541,
331,541,
331,538,
331,536,
330,532,
333,528,
329,523,
329,518,
328,514,
326,507,
331,500,
330,496,
329,491,
329,484,
328,480,
330,474,
330,468,
329,466,
327,459,
327,456,
329,451,
328,448,
330,444,
327,440,
330,436,
330,435,
332,431,
333,428,
331,425,
330,424,
334,424,
333,422,
333,421,
333,422,
333,422,
335,423,
337,424,
334,426,
334,425,
331,426,
335,426,
335,428,
333,429,
333,432,
334,434,
333,435,
334,435,
334,436,
332,438,
332,437,
334,439,
332,439,
334,442,
334,443,
330,440,
328,442,
330,439,
330,442,
329,442,
326,445,
325,442,
327,443,
326,445,
320,448,
321,449,
319,448,
323,451,
323,455,
323,462,
324,467,
324,475,
327,484,
327,496,
327,507,
328,521,
324,536,
326,552,
330,569,
328,587,
326,603,
324,622,
327,639,
330,658,
328,677,
327,692,
326,712,
330,726,
330,742,
331,757,
332,768,
333,776,
336,784,
339,791,
340,793,
341,797,
341,795,
343,794,
347,789,
349,785,
349,778,
349,769,
351,760,
352,747,
351,735,
351,722,
350,705,
350,689,
351,670,
351,654,
350,634,
348,616,
347,598,
348,578,
349,563,
347,547,
349,531,
343,512,
345,500,
343,486,
341,475,
340,462,
336,452,
339,441,
340,433,
337,426,
336,418,
334,412,
338,404,
339,400,
338,396,
337,392,
335,389,
336,387,
335,387,
334,389,
331,387,
331,391,
332,392,
333,396,
331,401,
330,405,
330,412,
329,417,
330,425,
327,433,
332,440,
330,446,
334,453,
334,460,
335,469,
332,477,
332,486,
333,492,
334,498,
334,504,
333,510,
332,517,
333,522,
333,525,
331,531,
332,535,
330,537,
331,537,
331,538,
333,542,
331,542,
328,540,
328,540,
330,535,
331,535,
330,534,
331,531,
333,526,
332,523,
332,519,
332,513,
334,510,
332,504,
335,500,
336,497,
334,493,
333,488,
333,483,
337,480,
334,474,
336,470,
336,466,
335,460,
337,454,
340,449,
337,447,
334,442,
335,438,
337,433,
338,431,
336,428,
334,423,
334,423,
336,420,
337,419,
336,418,
335,417,
332,415,
335,414,
335,416,
334,416,
332,418,
331,418,
332,418,
332,420,
333,424,
331,425,
326,426,
326,427,
328,428,
329,430,
328,432,
325,432,
328,434,
328,434,
329,437,
328,438,
328,439,
330,441,
330,439,
331,442,
331,444,
332,446,
333,445,
334,447,
333,449,
334,451,
331,452,
334,453,
333,453,
331,454,
332,456,
330,459,
328,463,
332,465,
328,469,
330,474,
329,481,
329,489,
329,499,
325,511,
324,524,
323,537,
324,552,
326,568,
324,585,
324,604,
323,619,
323,639,
325,655,
325,673,
322,691,
324,707,
324,722,
328,736,
329,749,
326,761,
329,772,
329,779,
333,785,
334,787,
336,792,
338,792,
336,789,
340,785,
341,778,
343,772,
344,765,
341,752,
346,740,
346,725,
348,711,
349,695,
348,677,
351,661,
350,641,
349,627,
350,609,
350,592,
345,575,
351,557,
349,540,
347,523,
342,507,
343,491,
344,477,
342,465,
341,453,
340,440,
338,431,
342,421,
342,412,
341,405,
340,396,
340,391,
340,384,
341,380,
340,378,
334,375,
335,372,
335,371,
335,372,
332,375,
329,374,
329,380,
330,384,
331,390,
329,399,
326,405,
324,412,
326,421,
328,429,
326,439,
328,448,
326,456,
329,465,
330,474,
330,484,
330,492,
330,501,
331,509,
334,516,
333,524,
332,532,
332,535,
334,542,
332,546,
335,549,
331,553,
332,554,
333,557,
332,555,
334,558,
331,556,
334,557,
332,553,
334,550,
333,545,
333,543,
333,538,
332,534,
337,529,
335,526,
333,520,
336,514,
334,509,
337,503,
340,496,
338,489,
338,485,
337,477,
338,469,
338,464,
338,459,
335,453,
334,448,
337,443,
336,441,
338,438,
332,431,
333,430,
332,428,
335,424,
334,422,
330,423,
326,422,
328,421,
328,421,
328,422,
327,422,
325,423,
327,423,
328,423,
327,423,
325,424,
326,426,
325,426,
325,426,
328,428,
326,430,
324,431,
325,433,
326,434,
326,436,
326,441,
323,441,
326,442,
325,441,
327,445,
326,446,
327,447,
323,450,
327,450,
327,453,
326,454,
323,455,
325,456,
326,458,
327,460,
330,463,
329,466,
330,466,
332,472,
332,476,
333,482,
332,491,
334,500,
336,509,
337,523,
338,534,
336,550,
337,564,
337,580,
337,598,
337,614,
333,629,
334,647,
334,664,
336,679,
339,697,
335,711,
336,724,
336,735,
337,747,
339,759,
340,764,
340,770,
341,771,
342,773,
344,775,
344,772,
345,768,
346,762,
348,753,
345,746,
349,734,
348,721,
347,708,
351,693,
350,679,
349,664,
349,648,
346,631,
346,613,
347,599,
347,582,
343,567,
343,549,
343,535,
339,519,
342,505,
339,490,
336,475,
338,463,
336,449,
335,437,
337,426,
333,417,
337,407,
336,397,
337,391,
334,383,
334,377,
333,371,
337,367,
335,368,
332,363,
331,363,
331,366,
331,368,
329,372,
325,374,
323,381,
325,386,
326,395,
325,401,
327,410,
324,418,
323,427,
325,437,
323,448,
323,460,
325,469,
327,478,
327,487,
325,497,
326,505,
326,514,
329,522,
330,528,
330,537,
331,541,
333,544,
334,550,
337,552,
339,555,
338,555,
341,554,
342,553,
344,551,
344,550,
344,551,
345,547,
343,543,
347,542,
345,538,
346,534,
346,531,
344,523,
344,519,
344,515,
343,510,
341,504,
340,498,
339,493,
337,487,
337,482,
332,475,
332,469,
331,463,
330,458,
328,455,
327,447,
326,444,
328,440,
327,436,
325,434,
323,430,
324,429,
326,427,
326,424,
326,424,
328,423,
327,421,
330,421,
330,421,
329,422,
328,421,
328,423,
329,423,
329,422,
329,424,
328,426,
328,425,
329,427,
328,429,
330,430,
329,431,
327,432,
330,431,
328,433,
329,434,
328,436,
325,437,
324,438,
324,437,
328,442,
329,444,
325,446,
328,448,
331,451,
332,455,
333,460,
332,466,
331,472,
334,480,
337,492,
337,502,
336,515,
336,528,
338,545,
339,561,
339,577,
338,595,
336,612,
336,631,
339,652,
338,668,
334,686,
333,702,
336,719,
337,734,
337,747,
333,755,
334,767,
335,773,
337,780,
338,785,
338,788,
336,789,
337,786,
339,785,
338,781,
338,772,
336,760,
340,749,
341,737,
341,723,
341,708,
338,693,
339,676,
343,659,
343,643,
343,626,
342,608,
343,591,
345,573,
343,558,
342,541,
340,526,
340,510,
341,495,
344,486,
340,472,
341,461,
338,451,
343,438,
342,431,
341,421,
339,412,
336,404,
339,396,
338,391,
336,384,
334,380,
332,375,
332,373,
330,373,
330,373,
328,376,
329,378,
330,382,
329,387,
330,393,
329,399,
328,406,
326,413,
329,422,
327,431,
324,438,
327,449,
327,457,
329,468,
327,477,
328,486,
326,496,
327,502,
330,510,
327,521,
329,525,
326,533,
329,538,
330,544,
330,551,
329,555,
331,555,
330,557,
335,555,
335,557,
336,554,
332,551,
336,550,
338,546,
337,543,
336,540,
335,535,
332,531,
333,524,
336,519,
335,515,
332,510,
333,502,
335,497,
333,492,
335,485,
330,480,
330,474,
329,466,
330,464,
327,458,
327,453,
325,448,
327,444,
325,440,
326,436,
324,432,
322,428,
323,426,
325,426,
326,423,
325,420,
326,418,
327,419,
327,418,
328,419,
325,418,
328,421,
330,419,
333,422,
332,423,
332,425,
332,427,
332,430,
337,430,
332,432,
333,433,
332,433,
333,433,
334,435,
332,437,
331,437,
328,438,
331,438,
332,440,
331,442,
330,442,
328,444,
330,444,
328,445,
331,449,
329,450,
327,451,
333,454,
329,455,
331,462,
330,468,
328,475,
324,481,
331,490,
330,500,
329,514,
327,529,
325,545,
327,560,
329,578,
329,597,
328,615,
325,634,
329,652,
331,671,
331,688,
332,708,
332,724,
336,739,
337,752,
336,766,
335,777,
337,786,
337,793,
339,799,
339,805,
335,804,
339,805,
339,801,
340,798,
342,792,
344,783,
345,771,
346,761,
347,748,
346,735,
347,718,
346,702,
349,684,
350,666,
351,647,
348,632,
350,614,
351,595,
351,577,
349,561,
347,545,
346,528,
347,514,
346,499,
347,486,
344,474,
342,461,
345,450,
341,440,
344,431,
343,423,
342,416,
343,406,
343,400,
341,393,
341,390,
340,386,
341,383,
340,381,
339,381,
337,382,
337,382,
333,387,
336,389,
332,395,
336,400,
333,404,
332,412,
334,418,
335,426,
334,434,
333,442,
332,448,
335,459,
333,467,
335,476,
330,482,
334,490,
334,498,
338,505,
336,512,
336,518,
334,523,
332,528,
336,532,
335,536,
335,541,
333,542,
334,542,
334,544,
334,543,
332,543,
331,541,
330,540,
331,537,
330,535,
331,532,
328,527,
326,522,
330,516,
329,512,
327,505,
325,502,
328,496,
325,488,
327,486,
328,480,
325,476,
324,471,
332,466,
331,461,
331,456,
330,452,
331,447,
332,443,
334,440,
330,436,
330,432,
332,431,
333,429,
336,427,
333,427,
330,424,
329,423,
333,423,
332,423,
331,422,
328,422,
330,420,
330,421,
331,420,
329,422,
327,421,
330,423,
332,423,
333,424,
336,424,
334,426,
334,428,
334,428,
336,432,
337,433,
336,434,
337,436,
339,435,
338,438,
339,440,
340,440,
337,441,
339,443,
339,443,
337,443,
333,445,
332,447,
332,447,
332,449,
333,450,
332,452,
327,452,
328,455,
325,456,
326,461,
324,467,
324,472,
323,479,
326,488,
325,499,
321,511,
324,525,
323,541,
326,555,
326,572,
326,591,
326,612,
324,630,
328,649,
328,669,
325,687,
328,704,
328,721,
331,738,
333,751,
333,764,
332,776,
335,784,
337,794,
340,801,
339,806,
338,808,
340,809,
345,807,
348,804,
349,800,
350,793,
349,784,
351,773,
353,761,
355,748,
354,734,
353,718,
356,701,
357,683,
355,667,
356,650,
352,630,
353,612,
355,594,
355,579,
352,561,
349,546,
350,531,
348,516,
348,502,
346,488,
341,474,
341,462,
339,449,
338,441,
339,429,
338,420,
336,414,
339,405,
338,398,
339,394,
340,388,
335,383,
338,381,
338,381,
338,379,
333,380,
334,380,
334,382,
334,388,
334,393,
331,398,
329,404,
331,410,
330,418,
332,428,
329,437,
327,445,
331,454,
332,461,
331,468,
327,475,
328,484,
326,491,
328,498,
324,506,
325,509,
324,516,
324,518,
326,522,
325,526,
324,530,
322,530,
324,531,
326,534,
329,533,
326,533,
326,531,
325,530,
328,528,
328,527,
328,523,
330,520,
328,515,
331,510,
333,508,
333,503,
332,499,
333,494,
332,487,
336,485,
337,479,
336,474,
330,470,
335,464,
336,462,
334,457,
334,452,
337,450,
334,446,
335,443,
335,443,
332,437,
334,435,
335,432,
336,431,
335,429,
333,427,
331,425,
335,425,
334,425,
336,424,
332,422,
333,422,
337,424,
336,424,
338,425,
335,426,
336,426,
335,425,
337,426,
336,426,
335,426,
333,426,
332,426,
334,430,
334,432,
333,434,
331,435,
331,436,
333,437,
327,438,
330,439,
331,441,
330,440,
331,442,
329,445,
328,445,
329,447,
330,448,
329,446,
330,449,
328,450,
326,451,
327,451,
325,451,
328,453,
326,457,
323,456,
325,458,
327,457,
327,462,
328,466,
326,471,
324,477,
326,487,
327,498,
325,510,
322,523,
323,537,
323,553,
324,570,
324,590,
321,607,
321,625,
326,643,
326,663,
326,679,
325,697,
327,713,
326,728,
327,741,
333,757,
332,767,
334,775,
337,783,
339,787,
341,792,
339,791,
342,791,
342,786,
347,783,
346,774,
346,767,
347,756,
347,745,
350,730,
351,716,
353,701,
349,684,
353,667,
354,649,
354,633,
353,613,
353,597,
349,579,
351,561,
351,547,
349,530,
346,515,
349,500,
346,485,
344,474,
344,461,
342,448,
342,437,
343,425,
343,417,
340,409,
338,401,
338,394,
340,388,
338,382,
335,380,
333,376,
334,373,
335,373,
335,376,
333,376,
331,379,
330,381,
331,386,
329,391,
329,399,
328,405,
328,413,
328,419,
327,428,
323,436,
325,444,
324,452,
326,462,
328,470,
327,478,
328,485,
328,496,
330,502,
332,510,
333,520,
335,525,
334,532,
334,538,
335,542,
336,546,
336,550,
337,552,
337,552,
338,553,
337,553,
336,551,
334,550,
337,545,
338,541,
336,540,
335,536,
330,531,
334,528,
333,521,
336,517,
332,512,
333,506,
335,501,
334,491,
336,487,
335,482,
334,477,
335,469,
336,465,
334,461,
335,454,
332,451,
331,443,
331,440,
330,437,
328,432,
331,430,
330,427,
329,426,
328,423,
325,420,
323,419,
322,419,
325,416,
323,416,
324,416,
323,415,
322,416,
326,417,
326,417,
322,418,
325,417,
323,421,
329,422,
329,423,
330,427,
328,428,
327,429,
330,429,
332,433,
335,434,
333,435,
333,437,
332,437,
336,439,
333,441,
333,442,
330,443,
330,445,
329,445,
328,448,
329,449,
326,450,
328,452,
329,451,
330,454,
330,456,
327,458,
331,459,
328,459,
331,463,
330,467,
328,474,
327,478,
328,486,
328,494,
325,504,
324,516,
321,529,
323,543,
325,561,
322,576,
322,594,
320,610,
327,631,
324,650,
325,666,
325,684,
326,701,
328,717,
332,732,
332,747,
330,757,
335,768,
340,777,
340,782,
342,787,
341,786,
344,788,
345,785,
351,782,
349,779,
350,769,
351,761,
352,748,
353,736,
352,723,
350,709,
348,693,
351,677,
351,660,
351,644,
349,627,
350,609,
349,591,
350,573,
349,558,
348,542,
345,525,
348,512,
346,496,
346,485,
345,472,
341,462,
342,453,
344,439,
345,433,
343,425,
342,420,
339,411,
342,405,
339,398,
339,394,
335,391,
332,385,
335,381,
334,380,
333,379,
333,380,
329,381,
331,384,
330,389,
326,394,
326,399,
325,405,
326,411,
328,419,
327,428,
324,437,
326,445,
323,452,
323,462,
325,471,
321,477,
323,488,
324,494,
328,502,
325,509,
327,516,
327,521,
327,526,
331,532,
332,536,
332,539,
330,541,
333,542,
336,544,
334,547,
337,545,
334,544,
335,541,
339,536,
337,535,
339,531,
338,527,
339,522,
338,517,
340,512,
337,507,
336,502,
337,497,
338,488,
339,483,
338,479,
339,473,
339,468,
339,463,
336,457,
334,452,
333,448,
332,444,
333,440,
333,436,
333,434,
333,430,
330,426,
332,424,
331,422,
326,420,
330,418,
326,416,
330,416,
328,414,
326,417,
324,416,
323,415,
324,416,
323,417,
322,416,
318,418,
322,421,
323,422,
326,424,
326,427,
327,428,
324,430,
325,431,
327,433,
326,436,
328,438,
329,440,
331,442,
335,444,
337,446,
336,447,
333,448,
337,448,
339,450,
335,450,
336,452,
334,451,
335,452,
336,452,
335,453,
332,455,
332,456,
332,459,
331,459,
331,465,
330,470,
330,478,
330,485,
330,494,
325,504,
326,516,
324,531,
325,543,
326,560,
327,577,
328,594,
327,610,
325,628,
332,647,
328,665,
326,684,
328,701,
330,715,
331,732,
331,746,
329,759,
331,769,
331,777,
337,785,
338,791,
340,795,
338,794,
342,794,
344,790,
348,785,
343,780,
347,771,
346,760,
347,748,
348,736,
348,722,
345,708,
342,691,
345,677,
345,660,
344,645,
344,628,
344,610,
345,592,
344,574,
344,561,
345,546,
343,531,
345,516,
343,501,
344,491,
343,478,
340,465,
340,453,
338,442,
337,436,
338,427,
339,419,
335,409,
340,403,
335,396,
335,391,
333,386,
333,384,
335,379,
331,380,
332,382,
331,381,
331,384,
332,385,
329,388,
330,394,
330,400,
329,404,
329,410,
330,416,
329,426,
330,432,
326,441,
329,448,
330,455,
331,465,
326,469,
329,479,
329,486,
334,493,
332,500,
331,508,
329,514,
334,519,
333,525,
333,529,
334,533,
330,537,
335,540,
333,542,
331,546,
330,545,
330,545,
330,544,
333,542,
331,541,
330,537,
327,534,
328,531,
330,526,
331,523,
331,517,
329,509,
332,504,
330,496,
333,492,
332,486,
331,479,
331,472,
334,466,
332,461,
335,454,
334,448,
334,443,
333,437,
335,434,
335,430,
332,425,
330,422,
333,418,
330,416,
333,414,
331,413,
330,411,
333,413,
329,413,
330,413,
328,411,
329,412,
332,412,
332,413,
329,415,
326,416,
329,419,
329,420,
331,423,
330,427,
328,428,
326,430,
330,432,
331,435,
329,436,
329,438,
327,440,
331,441,
331,445,
333,445,
332,447,
331,449,
330,450,
330,451,
331,451,
329,452,
327,453,
327,452,
329,454,
329,456,
327,456,
325,456,
328,458,
324,456,
325,460,
325,462,
324,464,
324,468,
324,471,
324,480,
324,490,
321,499,
323,510,
324,523,
322,537,
324,554,
322,569,
322,586,
328,604,
326,623,
327,644,
325,661,
326,680,
328,698,
327,715,
328,732,
329,748,
329,761,
330,773,
333,785,
333,793,
330,800,
334,805,
338,809,
339,810,
341,808,
342,805,
342,802,
345,792,
350,784,
350,774,
349,761,
349,748,
351,732,
353,715,
354,698,
353,682,
354,662,
351,643,
353,624,
353,607,
352,589,
353,571,
351,553,
352,538,
353,524,
354,508,
349,493,
350,481,
349,466,
347,456,
348,446,
346,434,
344,426,
347,414,
344,406,
342,400,
343,395,
344,386,
342,382,
340,377,
340,375,
337,373,
338,372,
338,373,
335,377,
337,380,
335,385,
333,390,
336,395,
336,401,
334,408,
331,414,
332,422,
335,430,
335,438,
331,448,
329,455,
331,463,
332,472,
332,480,
330,489,
332,494,
329,503,
331,508,
331,515,
329,521,
329,525,
329,531,
328,534,
329,536,
329,538,
330,539,
330,540,
330,540,
330,539,
331,538,
330,537,
329,534,
332,530,
330,526,
331,523,
330,518,
329,513,
330,509,
329,503,
333,500,
331,494,
331,488,
331,482,
331,475,
328,473,
328,467,
328,462,
324,457,
328,452,
329,448,
328,444,
326,439,
327,435,
330,433,
329,429,
330,428,
333,424,
332,422,
334,422,
333,420,
331,418,
331,417,
332,415,
332,414,
332,415,
333,414,
332,414,
334,415,
333,416,
332,418,
333,421,
331,418,
331,421,
332,422,
333,422,
335,426,
334,427,
331,429,
335,429,
336,431,
336,433,
335,436,
334,437,
333,440,
336,440,
338,443,
334,445,
335,447,
335,449,
336,450,
335,453,
332,454,
334,456,
334,456,
333,454,
334,458,
333,458,
330,455,
331,457,
330,455,
332,456,
330,456,
331,456,
330,455,
333,455,
330,457,
332,458,
332,461,
329,463,
334,467,
331,474,
331,483,
330,492,
327,504,
328,517,
327,529,
328,547,
327,563,
328,578,
330,597,
329,617,
331,636,
329,653,
329,673,
328,690,
332,707,
331,724,
330,737,
331,753,
333,763,
335,774,
336,785,
337,791,
336,794,
338,796,
339,797,
340,792,
338,788,
339,782,
340,773,
342,763,
338,751,
340,738,
338,725,
340,709,
339,691,
342,675,
343,658,
341,640,
344,621,
344,602,
346,586,
345,569,
345,547,
344,532,
345,513,
345,501,
344,486,
342,471,
344,457,
342,444,
340,433,
338,423,
338,413,
338,402,
340,394,
336,388,
333,382,
335,377,
332,373,
333,370,
329,366,
329,366,
328,367,
328,368,
329,370,
330,373,
330,381,
329,387,
329,392,
330,399,
334,409,
332,418,
330,424,
331,435,
331,444,
334,456,
332,463,
331,474,
328,482,
332,490,
332,501,
332,511,
330,518,
330,527,
333,533,
333,539,
332,546,
332,551,
329,554,
329,556,
331,559,
330,560,
334,560,
328,559,
333,556,
331,554,
333,553,
333,551,
332,545,
333,543,
332,535,
335,533,
335,527,
334,523,
330,515,
334,509,
332,503,
331,496,
332,491,
330,485,
331,478,
332,472,
332,468,
331,462,
329,458,
330,452,
330,446,
327,440,
327,437,
327,432,
329,429,
330,426,
331,425,
329,420,
332,419,
333,417,
333,416,
330,416,
328,413,
329,415,
332,415,
334,415,
333,416,
331,416,
330,417,
330,418,
333,422,
331,426,
329,430,
328,430,
330,433,
327,434,
329,437,
327,440,
324,442,
327,443,
331,444,
328,448,
327,451,
325,451,
329,452,
330,452,
332,455,
333,455,
333,455,
334,457,
335,455,
337,459,
334,461,
336,461,
329,459,
336,463,
334,463,
332,467,
330,467,
331,470,
331,474,
330,479,
331,485,
327,492,
325,501,
328,513,
326,525,
322,539,
322,555,
322,569,
320,585,
322,602,
320,621,
321,636,
320,654,
322,672,
324,691,
322,704,
321,716,
324,733,
325,745,
329,757,
332,766,
330,773,
331,779,
335,781,
339,781,
335,781,
341,779,
341,773,
344,767,
347,758,
349,749,
347,738,
345,726,
348,711,
349,695,
349,682,
348,667,
348,652,
348,634,
350,618,
350,602,
351,584,
348,568,
349,553,
346,535,
347,522,
346,506,
343,494,
341,480,
342,467,
339,454,
339,443,
335,433,
336,421,
335,412,
335,402,
336,396,
333,389,
335,382,
336,377,
332,372,
333,372,
331,370,
332,369,
332,371,
332,375,
334,378,
330,381,
329,387,
335,393,
336,400,
334,408,
327,413,
330,423,
331,432,
335,441,
331,450,
333,461,
331,472,
329,481,
333,492,
331,501,
330,509,
328,519,
329,524,
330,532,
329,537,
327,543,
326,545,
326,550,
326,551,
327,554,
326,555,
326,555,
327,554,
328,551,
328,552,
330,550,
330,546,
330,542,
330,539,
330,533,
333,530,
330,526,
332,520,
336,514,
335,505,
334,501,
333,496,
334,489,
338,484,
339,480,
338,473,
337,468,
336,462,
339,458,
339,453,
340,448,
340,445,
338,440,
340,438,
338,432,
338,430,
338,424,
337,420,
340,416,
340,414,
339,412,
334,408,
334,409,
336,407,
334,407,
336,406,
333,408,
332,408,
331,407,
334,410,
333,411,
331,414,
330,417,
330,418,
331,420,
329,424,
328,425,
325,427,
327,430,
326,430,
328,435,
326,436,
325,439,
325,438,
326,440,
324,443,
326,447,
319,446,
325,450,
322,451,
325,454,
325,458,
324,462,
321,466,
327,473,
326,481,
325,490,
325,500,
324,510,
326,523,
327,538,
327,553,
325,570,
327,585,
329,603,
329,620,
328,640,
327,659,
326,674,
330,692,
333,710,
331,726,
327,741,
328,754,
333,766,
332,777,
331,785,
330,791,
331,794,
336,799,
340,800,
341,798,
340,794,
341,788,
344,781,
346,771,
347,761,
348,747,
348,733,
348,718,
352,702,
352,687,
352,669,
354,652,
353,634,
354,617,
354,599,
355,582,
352,567,
352,550,
352,535,
353,520,
352,506,
347,493,
351,482,
348,470,
350,460,
348,448,
346,440,
341,431,
346,421,
343,413,
340,407,
337,401,
338,395,
337,389,
338,385,
336,382,
334,382,
334,382,
332,381,
333,383,
332,386,
328,387,
326,391,
331,395,
328,400,
327,409,
327,415,
328,423,
329,431,
331,441,
330,450,
327,457,
331,467,
332,475,
334,484,
335,490,
334,498,
335,506,
334,513,
339,519,
337,526,
336,532,
335,534,
334,538,
336,541,
337,543,
336,544,
335,543,
336,543,
336,543,
337,542,
334,539,
332,537,
331,531,
331,528,
331,527,
330,522,
329,517,
330,512,
328,505,
329,502,
328,497,
323,491,
329,486,
329,478,
328,474,
331,471,
328,464,
330,459,
329,454,
329,450,
328,448,
328,443,
327,438,
327,435,
327,435,
328,433,
325,431,
326,428,
328,428,
329,426,
329,426,
327,425,
328,423,
328,423,
329,425,
327,426,
326,425,
328,427,
330,429,
332,431,
328,430,
328,429,
326,429,
326,430,
327,432,
327,433,
326,432,
326,432,
324,432,
330,432,
327,434,
328,436,
328,436,
332,436,
332,436,
332,438,
332,439,
332,441,
332,441,
333,444,
334,449,
334,450,
330,454,
331,456,
330,456,
331,457,
330,464,
327,466,
329,471,
331,474,
330,484,
328,492,
328,504,
327,514,
329,527,
330,542,
326,557,
326,574,
325,592,
325,610,
324,630,
327,648,
327,667,
325,686,
326,705,
328,723,
326,739,
326,755,
329,770,
332,785,
335,798,
338,810,
338,816,
340,823,
345,828,
348,831,
346,830,
348,826,
347,823,
353,815,
353,808,
351,800,
356,786,
357,772,
356,758,
360,742,
358,726,
360,708,
360,689,
363,671,
361,652,
360,634,
359,614,
357,596,
356,579,
356,561,
357,546,
353,531,
350,513,
352,501,
351,484,
352,473,
351,460,
348,447,
347,438,
346,427,
344,419,
341,413,
341,408,
336,401,
336,394,
335,389,
334,387,
328,384,
330,383,
329,384,
328,387,
326,389,
325,392,
321,395,
325,401,
323,407,
322,411,
322,419,
318,423,
320,430,
321,438,
323,447,
321,454,
323,461,
325,470,
326,478,
328,486,
328,494,
329,504,
331,509,
332,515,
332,522,
332,527,
331,531,
331,534,
334,538,
334,541,
336,544,
331,542,
337,543,
337,543,
335,540,
334,540,
336,535,
336,532,
336,528,
338,525,
338,520,
337,516,
335,511,
336,504,
335,500,
334,495,
331,488,
333,483,
333,475,
332,470,
334,466,
331,462,
332,455,
333,451,
333,446,
333,442,
330,437,
330,432,
330,428,
333,426,
332,423,
332,420,
331,417,
333,416,
331,413,
331,413,
333,413,
331,411,
333,411,
332,410,
333,413,
329,411,
330,412,
329,412,
331,412,
330,414,
327,413,
327,416,
329,415,
332,418,
328,419,
327,423,
326,422,
326,424,
328,428,
329,427,
328,430,
326,432,
327,433,
327,436,
325,436,
325,438,
322,439,
323,441,
326,443,
326,444,
327,446,
323,445,
327,448,
326,447,
328,449,
327,448,
326,449,
327,452,
326,451,
328,453,
328,452,
328,454,
322,455,
328,458,
329,458,
328,460,
324,462,
327,465,
326,469,
327,477,
326,484,
324,493,
325,503,
329,516,
329,528,
330,544,
328,560,
327,577,
328,597,
332,615,
332,634,
329,651,
330,670,
334,689,
333,706,
336,722,
332,737,
334,754,
337,767,
340,779,
341,790,
341,800,
345,805,
345,808,
347,811,
347,811,
346,809,
348,805,
351,799,
352,789,
350,781,
349,768,
351,754,
352,740,
355,724,
354,708,
354,691,
352,672,
355,656,
356,636,
354,619,
355,603,
351,583,
352,567,
350,548,
350,533,
348,520,
346,508,
345,493,
348,481,
345,469,
339,459,
338,448,
336,439,
339,430,
336,423,
335,416,
332,407,
332,399,
335,397,
333,392,
332,388,
329,386,
328,385,
329,385,
329,385,
327,388,
326,390,
323,394,
324,397,
322,404,
323,410,
318,413,
322,423,
324,430,
324,438,
327,447,
324,455,
324,464,
325,473,
326,481,
325,490,
326,498,
326,505,
327,513,
331,519,
331,523,
328,530,
330,535,
332,540,
332,541,
334,545,
333,545,
333,546,
335,547,
334,544,
336,545,
336,542,
333,539,
336,537,
332,529,
337,528,
337,523,
335,518,
334,514,
337,507,
334,500,
335,494,
333,490,
334,481,
335,477,
338,472,
334,466,
332,460,
334,454,
337,452,
335,446,
330,441,
332,435,
332,431,
332,428,
330,425,
332,421,
330,418,
327,418,
330,415,
332,413,
327,411,
324,408,
327,409,
329,409,
328,408,
328,412,
327,411,
328,411,
329,412,
328,412,
329,414,
327,416,
327,415,
327,418,
327,421,
329,424,
326,425,
329,427,
330,429,
329,430,
327,432,
329,435,
329,438,
330,441,
330,443,
331,448,
332,451,
329,451,
331,454,
329,454,
333,459,
332,460,
332,463,
332,460,
335,463,
335,463,
332,464,
331,465,
334,464,
334,465,
335,465,
329,465,
333,466,
333,467,
334,467,
331,468,
330,470,
328,473,
331,477,
329,483,
329,491,
330,499,
327,511,
328,524,
327,537,
327,552,
327,569,
323,584,
327,602,
328,621,
329,638,
330,655,
327,674,
327,690,
328,706,
332,723,
332,736,
333,748,
332,761,
331,769,
335,777,
335,783,
337,787,
336,786,
337,785,
340,781,
341,777,
343,771,
341,761,
343,751,
344,739,
347,725,
345,713,
344,697,
348,683,
346,666,
350,649,
348,631,
346,612,
347,590,
347,571,
344,556,
346,539,
345,521,
342,504,
341,491,
342,477,
340,466,
338,453,
336,442,
340,429,
340,419,
341,410,
339,401,
340,392,
341,387,
341,380,
341,375,
336,373,
337,369,
339,368,
339,368,
336,369,
334,369,
335,373,
336,377,
338,381,
336,387,
332,393,
334,402,
335,411,
337,420,
333,429,
334,439,
331,448,
329,458,
333,467,
333,478,
331,489,
332,497,
331,505,
333,512,
332,518,
331,524,
328,527,
332,532,
332,536,
333,537,
335,541,
332,543,
335,545,
335,544,
336,545,
337,544,
335,541,
336,541,
336,534,
335,534,
332,532,
331,527,
329,520,
332,517,
331,509,
332,504,
330,498,
330,491,
331,485,
331,481,
328,476,
331,470,
330,464,
332,460,
332,454,
330,449,
328,446,
330,440,
329,437,
330,433,
332,431,
328,426,
330,425,
327,423,
331,420,
331,418,
328,416,
328,417,
326,417,
329,417,
331,420,
327,420,
326,418,
329,420,
330,421,
327,424,
329,425,
327,427,
329,428,
330,431,
329,434,
327,434,
329,436,
328,440,
331,439,
330,441,
332,443,
334,443,
335,444,
333,444,
334,445,
332,446,
332,447,
333,449,
334,447,
336,449,
334,449,
331,450,
331,450,
331,452,
330,453,
332,454,
330,455,
329,456,
329,459,
330,464,
326,466,
325,474,
327,480,
328,489,
328,498,
326,511,
323,524,
324,538,
325,554,
329,570,
322,586,
325,603,
324,620,
327,637,
327,655,
326,672,
326,686,
329,704,
330,717,
333,730,
333,743,
330,753,
332,762,
334,768,
336,774,
333,779,
338,777,
338,778,
339,774,
342,770,
343,763,
343,755,
344,749,
345,738,
347,725,
345,713,
348,697,
348,681,
349,665,
351,645,
351,629,
351,612,
351,596,
350,577,
347,561,
349,545,
348,532,
347,518,
350,502,
350,487,
349,475,
347,462,
346,451,
346,440,
346,429,
344,422,
345,413,
341,404,
342,398,
342,391,
341,387,
337,381,
338,379,
333,376,
334,374,
335,374,
332,377,
331,379,
331,382,
328,386,
329,393,
325,399,
322,401,
325,411,
323,418,
324,424,
323,431,
325,439,
324,447,
323,453,
320,462,
322,470,
322,478,
320,485,
324,493,
324,498,
322,507,
326,513,
327,519,
328,522,
331,524,
330,528,
331,532,
329,533,
332,534,
333,533,
332,534,
334,531,
332,530,
336,528,
333,522,
334,522,
333,518,
335,516,
335,510,
337,507,
336,500,
339,497,
337,491,
333,490,
337,484,
338,482,
332,478,
336,476,
335,471,
339,468,
333,464,
335,463,
335,459,
332,454,
334,452,
336,448,
331,445,
332,442,
333,439,
332,437,
331,435,
331,436,
328,431,
330,431,
328,430,
331,429,
330,428,
329,427,
328,425,
329,426,
331,426,
330,427,
329,429,
330,430,
328,429,
327,430,
328,428,
326,433,
324,430,
327,434,
326,433,
325,436,
323,437,
324,437,
322,437,
325,439,
326,441,
325,441,
321,441,
328,442,
324,442,
326,444,
326,443,
327,444,
327,445,
329,448,
327,448,
328,449,
326,451,
329,453,
326,455,
330,460,
327,464,
326,469,
325,474,
328,483,
327,494,
329,508,
327,522,
325,537,
328,554,
327,573,
328,590,
327,609,
330,627,
330,647,
329,666,
329,685,
327,703,
331,722,
332,737,
332,754,
337,767,
336,781,
338,792,
339,799,
338,805,
339,805,
343,811,
346,808,
346,805,
347,801,
348,795,
350,787,
351,778,
352,767,
353,754,
355,739,
355,724,
352,708,
355,691,
356,673,
356,655,
354,636,
353,616,
353,599,
352,577,
353,562,
352,545,
350,528,
352,513,
352,498,
350,485,
349,474,
348,461,
348,451,
348,440,
347,432,
346,424,
347,416,
345,408,
344,402,
344,397,
343,393,
341,390,
339,387,
342,384,
341,384,
338,384,
338,387,
338,387,
339,391,
339,394,
338,399,
332,403,
332,410,
331,414,
331,422,
326,428,
325,435,
324,442,
324,450,
321,456,
318,464,
323,472,
320,478,
321,485,
323,491,
322,499,
320,504,
317,508,
322,511,
320,514,
322,520,
324,522,
325,525,
325,526,
326,526,
327,526,
328,527,
325,525,
328,525,
327,522,
329,522,
327,519,
331,518,
331,515,
334,509,
334,509,
332,502,
331,501,
331,493,
333,489,
336,484,
333,480,
332,473,
334,469,
333,464,
334,460,
336,455,
333,453,
334,448,
336,446,
332,442,
339,441,
337,437,
336,436,
336,433,
335,430,
336,430,
334,429,
335,426,
335,425,
335,422,
335,422,
334,421,
334,421,
333,422,
331,421,
332,422,
333,422,
333,420,
334,422,
333,423,
331,425,
334,425,
330,426,
333,425,
334,428,
334,428,
332,429,
330,432,
334,432,
335,433,
335,436,
334,438,
331,438,
330,442,
329,444,
332,444,
331,447,
329,446,
327,448,
330,446,
330,449,
326,449,
327,450,
327,450,
329,450,
328,450,
323,452,
325,451,
324,453,
325,450,
326,452,
325,453,
324,453,
322,452,
325,454,
323,454,
321,456,
322,459,
320,462,
320,467,
324,474,
322,480,
321,490,
323,500,
324,514,
325,527,
325,544,
323,558,
325,578,
325,597,
326,615,
327,634,
328,652,
326,672,
331,689,
331,707,
328,726,
333,740,
334,753,
338,769,
340,778,
342,789,
341,795,
341,802,
344,804,
347,804,
346,805,
350,801,
347,796,
350,789,
351,780,
355,770,
353,758,
349,744,
350,729,
352,714,
356,698,
355,684,
355,665,
353,646,
359,630,
356,611,
352,593,
356,577,
352,558,
351,542,
347,526,
349,511,
349,496,
345,481,
344,468,
344,456,
343,445,
341,437,
340,428,
339,418,
341,411,
339,406,
336,398,
334,393,
334,390,
335,386,
334,384,
331,382,
332,383,
333,384,
331,386,
332,390,
330,393,
332,396,
332,399,
333,405,
332,413,
331,418,
330,423,
331,432,
331,438,
328,445,
328,457,
327,462,
326,471,
330,478,
329,485,
326,493,
326,500,
323,506,
325,511,
326,517,
325,523,
323,524,
326,531,
327,531,
328,536,
324,539,
327,542,
329,541,
331,542,
331,540,
331,539,
333,536,
334,535,
335,531,
337,527,
337,526,
336,521,
339,516,
338,511,
339,508,
335,502,
336,498,
334,492,
336,486,
337,482,
335,475,
332,470,
332,464,
332,460,
332,454,
329,448,
326,442,
328,436,
329,432,
328,430,
329,425,
330,422,
329,419,
328,416,
330,414,
329,411,
329,412,
325,411,
328,411,
327,409,
327,411,
326,413,
327,414,
324,414,
327,414,
322,416,
326,416,
325,418,
323,417,
326,419,
325,419,
326,423,
326,425,
324,427,
324,428,
326,431,
325,435,
326,439,
328,443,
327,447,
328,450,
331,456,
328,459,
328,462,
331,465,
330,468,
329,471,
330,475,
330,478,
332,480,
332,483,
331,486,
330,486,
329,488,
330,490,
330,490,
326,489,
328,487,
323,486,
328,486,
329,485,
331,485,
327,481,
329,480,
330,478,
327,475,
327,471,
329,470,
326,468,
328,464,
330,462,
328,460,
329,457,
328,454,
330,453,
330,451,
332,448,
329,448,
327,448,
330,447,
332,445,
325,446,
327,445,
327,445,
328,447,
326,448,
328,449,
324,451,
322,450,
328,452,
324,450,
323,453,
324,454,
322,455,
324,457,
325,462,
325,467,
324,472,
325,478,
322,487,
327,497,
326,509,
330,522,
328,538,
329,556,
330,573,
331,597,
330,617,
328,638,
330,657,
331,677,
331,696,
327,715,
328,733,
327,747,
332,766,
331,781,
333,793,
330,800,
328,803,
333,805,
334,805,
335,804,
336,797,
334,791,
339,783,
340,772,
341,764,
342,752,
342,735,
344,721,
345,707,
343,689,
346,670,
345,649,
348,630,
350,610,
348,593,
348,573,
344,555,
345,537,
349,519,
348,503,
350,490,
346,477,
345,461,
346,446,
347,435,
348,426,
349,416,
347,407,
348,396,
347,392,
343,384,
346,380,
343,372,
346,367,
342,362,
343,361,
341,359,
341,359,
340,359,
341,361,
340,365,
337,368,
338,373,
340,379,
336,386,
336,393,
331,400,
330,407,
329,416,
329,429,
328,437,
325,448,
327,456,
330,467,
329,477,
329,486,
328,495,
328,505,
328,513,
328,519,
328,531,
329,537,
326,540,
327,548,
330,552,
330,555,
328,557,
330,559,
330,560,
331,561,
331,561,
331,561,
332,559,
332,556,
332,553,
335,549,
338,545,
333,539,
334,534,
335,529,
336,524,
334,516,
332,511,
334,506,
334,498,
334,493,
329,488,
330,483,
334,477,
333,473,
334,468,
333,463,
332,456,
330,451,
333,447,
334,442,
333,440,
334,434,
334,432,
337,430,
334,427,
334,424,
333,423,
332,421,
331,419,
331,419,
326,418,
329,419,
329,418,
330,417,
332,416,
331,420,
327,418,
327,422,
327,424,
327,427,
328,429,
326,431,
326,434,
326,435,
326,436,
326,439,
324,441,
322,443,
324,445,
326,446,
325,448,
324,450,
325,451,
322,453,
326,457,
328,458,
328,462,
327,465,
327,464,
327,465,
329,466,
328,467,
328,467,
331,469,
330,468,
331,472,
332,472,
329,471,
328,470,
331,471,
329,470,
330,468,
328,466,
332,466,
328,464,
330,462,
333,463,
330,462,
329,462,
332,460,
335,462,
335,459,
332,460,
335,460,
336,459,
334,458,
337,460,
337,459,
337,460,
337,460,
339,463,
339,466,
334,469,
336,474,
335,483,
334,491,
329,499,
329,511,
328,522,
325,539,
327,555,
327,571,
325,590,
326,606,
324,625,
326,641,
328,656,
324,675,
326,693,
326,707,
326,721,
328,737,
329,749,
332,758,
332,765,
338,771,
340,777,
341,779,
342,779,
344,775,
344,771,
347,770,
347,760,
348,754,
351,742,
350,730,
350,719,
353,703,
350,688,
353,671,
353,656,
354,638,
354,622,
354,606,
356,587,
355,571,
356,555,
355,540,
353,526,
352,512,
351,498,
352,484,
350,471,
348,459,
347,446,
346,435,
348,427,
344,418,
339,409,
340,401,
338,395,
336,389,
335,386,
335,380,
334,377,
333,374,
330,374,
332,372,
330,376,
329,380,
326,381,
332,386,
328,393,
326,398,
329,401,
325,409,
330,414,
329,422,
330,430,
325,436,
328,446,
327,453,
327,464,
327,475,
325,481,
326,489,
322,496,
323,503,
326,509,
324,517,
322,521,
324,530,
324,536,
322,541,
324,542,
319,546,
324,549,
326,547,
329,550,
327,546,
326,545,
327,543,
326,541,
326,537,
327,533,
327,529,
327,527,
328,521,
329,517,
326,511,
326,508,
327,503,
327,499,
326,492,
324,489,
328,484,
330,478,
329,474,
329,470,
329,465,
330,460,
333,457,
332,453,
335,447,
333,444,
336,441,
338,438,
336,434,
339,432,
335,430,
335,428,
338,426,
336,425,
335,425,
335,426,
331,425,
335,424,
335,425,
333,427,
333,428,
330,429,
333,432,
331,432,
332,436,
331,438,
332,442,
331,445,
333,442,
334,446,
333,448,
335,448,
331,447,
336,448,
334,450,
332,448,
331,450,
331,451,
332,450,
334,453,
334,453,
331,452,
329,453,
330,451,
330,450,
330,451,
329,451,
327,451,
328,450,
328,452,
326,452,
328,450,
327,452,
329,452,
329,454,
325,455,
327,455,
326,459,
326,460,
324,464,
323,468,
328,476,
325,484,
327,491,
328,501,
327,515,
329,527,
326,543,
328,560,
329,577,
326,593,
328,610,
327,628,
327,645,
331,664,
331,681,
331,697,
331,713,
328,725,
333,739,
333,752,
334,762,
333,767,
338,773,
335,777,
337,780,
338,781,
336,777,
335,772,
340,767,
337,758,
339,752,
341,742,
342,728,
343,719,
342,707,
343,693,
344,677,
340,661,
342,645,
341,629,
341,612,
340,597,
339,579,
343,564,
343,548,
343,533,
343,518,
343,503,
343,491,
345,479,
339,470,
340,456,
341,447,
339,440,
340,430,
336,424,
339,416,
337,410,
339,403,
338,397,
339,395,
336,390,
333,389,
336,385,
334,386,
333,388,
332,391,
332,392,
331,395,
333,399,
332,406,
331,411,
328,417,
330,425,
329,430,
327,437,
328,447,
327,453,
327,463,
328,469,
330,480,
330,490,
327,498,
327,506,
331,514,
331,520,
330,527,
331,533,
327,537,
328,543,
326,547,
328,548,
328,552,
327,552,
329,554,
329,553,
327,553,
328,552,
327,550,
328,547,
330,546,
330,543,
329,541,
330,536,
331,532,
332,530,
333,524,
331,518,
332,516,
335,511,
336,508,
337,500,
337,497,
333,491,
337,485,
338,482,
335,479,
335,470,
333,465,
332,460,
329,455,
328,452,
329,447,
330,443,
328,441,
328,436,
326,434,
327,432,
326,431,
328,428,
325,425,
329,425,
329,425,
325,424,
331,424,
328,421,
330,423,
332,426,
330,426,
330,428,
332,426,
332,428,
331,429,
330,431,
327,432,
330,431,
331,431,
332,434,
333,434,
333,434,
333,435,
334,437,
332,439,
330,441,
328,442,
328,441,
328,441,
325,443,
325,446,
325,447,
325,448,
328,450,
326,453,
322,453,
325,457,
329,457,
324,461,
326,461,
326,464,
325,466,
326,468,
326,470,
328,472,
325,477,
327,480,
328,484,
325,490,
326,500,
326,508,
325,519,
324,531,
329,544,
329,559,
328,573,
327,588,
327,604,
327,621,
328,637,
329,654,
329,668,
332,686,
331,699,
335,713,
335,728,
338,738,
337,747,
339,756,
341,762,
342,766,
342,768,
344,769,
342,771,
345,768,
345,767,
344,761,
348,753,
351,744,
348,733,
349,722,
349,709,
350,694,
353,680,
349,663,
351,647,
352,630,
351,612,
353,595,
350,580,
350,564,
347,547,
348,532,
345,515,
350,501,
346,488,
343,473,
343,462,
338,449,
339,438,
342,427,
336,418,
335,410,
334,400,
334,394,
333,387,
330,381,
332,376,
327,372,
329,369,
330,367,
326,364,
328,362,
328,362,
326,364,
326,363,
327,369,
324,371,
323,376,
323,379,
325,387,
324,394,
323,402,
325,411,
325,417,
324,429,
324,439,
326,450,
324,459,
328,469,
329,476,
330,488,
329,495,
331,502,
333,510,
328,519,
331,526,
332,532,
327,537,
332,542,
331,547,
329,551,
331,552,
327,553,
330,553,
329,553,
326,554,
326,553,
326,553,
327,549,
329,549,
330,546,
329,541,
328,539,
328,534,
333,531,
333,525,
331,525,
334,519,
331,511,
332,506,
334,502,
335,496,
336,491,
335,485,
338,481,
338,475,
336,470,
334,467,
335,461,
338,456,
335,454,
335,450,
332,446,
334,444,
334,442,
335,439,
335,439,
335,437,
333,436,
332,433,
333,433,
331,432,
335,432,
331,432,
332,432,
332,431,
333,431,
333,431,
334,431,
334,433,
336,433,
332,434,
337,436,
334,435,
336,437,
337,439,
336,439,
335,442,
331,442,
330,444,
330,444,
328,446,
327,448,
324,449,
331,448,
327,450,
328,453,
324,451,
324,454,
325,454,
326,454,
325,458,
323,459,
322,462,
322,466,
322,472,
321,479,
321,487,
321,497,
323,512,
324,525,
323,542,
322,558,
325,574,
323,591,
325,607,
324,625,
325,641,
323,659,
323,673,
329,690,
327,706,
327,721,
326,734,
333,746,
330,751,
332,761,
336,768,
334,772,
334,772,
340,773,
337,771,
341,767,
340,761,
341,756,
343,748,
345,739,
346,728,
349,714,
350,700,
350,686,
348,671,
352,655,
352,639,
353,624,
353,606,
351,590,
353,574,
352,557,
352,543,
353,528,
352,514,
350,501,
348,485,
352,475,
351,463,
349,454,
346,445,
347,435,
343,424,
345,418,
345,410,
342,402,
340,397,
338,393,
338,387,
336,381,
334,377,
333,376,
333,373,
334,371,
332,375,
329,375,
330,377,
329,381,
328,385,
326,390,
325,397,
324,402,
323,408,
323,416,
323,422,
326,432,
326,443,
326,452,
325,461,
330,472,
328,482,
326,491,
326,499,
326,505,
325,516,
328,524,
326,532,
330,538,
330,544,
331,549,
330,552,
332,556,
329,559,
329,561,
331,560,
333,562,
333,562,
331,560,
333,557,
333,556,
338,555,
337,551,
335,547,
337,542,
339,538,
337,532,
337,529,
339,523,
339,517,
342,512,
339,506,
340,499,
339,495,
338,490,
339,481,
340,477,
339,473,
339,466,
339,460,
341,458,
338,451,
339,449,
338,446,
336,444,
333,439,
336,437,
332,435,
331,434,
332,433,
329,433,
329,430,
332,429,
331,430,
327,430,
330,427,
331,430,
328,432,
329,432,
330,434,
329,433,
329,434,
328,437,
329,437,
328,437,
329,439,
328,439,
326,439,
327,444,
327,445,
325,447,
326,446,
326,447,
322,450,
323,452,
324,455,
326,454,
326,457,
324,460,
322,462,
326,466,
329,472,
327,478,
326,486,
326,494,
322,504,
324,517,
325,528,
329,545,
327,562,
325,576,
327,591,
330,611,
329,627,
328,648,
328,664,
330,681,
331,696,
331,711,
332,725,
333,738,
332,752,
337,760,
338,769,
334,773,
336,777,
335,780,
336,781,
337,778,
340,776,
339,767,
342,759,
345,746,
346,738,
346,726,
345,713,
338,697,
347,683,
341,665,
342,648,
341,634,
340,617,
341,599,
341,581,
340,566,
340,549,
339,534,
338,518,
337,503,
338,491,
333,478,
333,466,
333,454,
331,445,
331,436,
332,427,
334,419,
334,411,
332,406,
331,402,
333,393,
331,390,
335,385,
332,384,
331,382,
333,382,
332,382,
331,383,
330,385,
334,389,
333,393,
334,398,
334,401,
333,407,
335,413,
334,422,
335,429,
335,436,
334,447,
334,457,
335,465,
333,475,
336,485,
336,493,
335,502,
335,510,
334,518,
336,525,
335,530,
336,537,
335,545,
333,549,
333,554,
336,558,
334,561,
334,562,
333,564,
334,566,
335,563,
334,565,
329,563,
329,559,
332,556,
333,554,
328,549,
327,547,
331,542,
331,537,
332,531,
329,526,
331,521,
328,513,
330,509,
334,503,
331,495,
332,488,
329,481,
331,477,
332,470,
331,465,
332,462,
333,455,
328,451,
334,448,
332,444,
333,441,
333,438,
333,434,
336,432,
336,430,
336,429,
334,430,
333,426,
336,424,
335,425,
338,425,
334,424,
337,425,
336,425,
335,425,
336,425,
338,427,
336,428,
335,429,
336,427,
338,431,
338,433,
339,436,
333,436,
339,437,
340,438,
339,442,
339,442,
340,444,
340,447,
343,451,
341,454,
338,459,
336,463,
336,470,
335,478,
334,489,
330,501,
331,514,
328,528,
329,545,
329,561,
325,578,
327,596,
328,613,
327,631,
327,650,
325,669,
325,685,
331,703,
332,720,
332,735,
332,748,
333,759,
332,769,
337,775,
334,784,
337,785,
339,786,
342,787,
345,784,
344,781,
344,776,
344,769,
346,763,
346,751,
348,738,
348,726,
348,712,
347,695,
350,676,
352,660,
349,643,
352,626,
352,609,
348,590,
352,576,
347,559,
352,540,
347,521,
349,508,
344,494,
342,482,
340,469,
343,459,
341,448,
342,440,
340,430,
339,423,
339,414,
339,412,
339,408,
338,405,
337,402,
338,401,
338,397,
336,396,
337,393,
333,390,
335,389,
336,391,
335,392,
334,397,
332,399,
331,404,
332,409,
330,415,
329,422,
326,429,
325,435,
324,444,
325,449,
320,459,
323,468,
322,476,
322,482,
321,490,
321,496,
318,504,
321,508,
324,516,
320,519,
322,522,
321,527,
320,530,
324,534,
327,536,
328,541,
326,542,
327,540,
330,542,
330,541,
334,544,
333,541,
333,538,
334,536,
336,533,
337,530,
337,527,
336,523,
335,518,
335,516,
335,512,
335,506,
334,501,
333,497,
333,491,
334,486,
333,482,
334,476,
336,470,
333,466,
334,460,
334,456,
331,452,
333,448,
333,446,
336,442,
330,439,
329,436,
333,435,
334,432,
330,432,
333,429,
332,431,
333,432,
333,432,
334,432,
330,431,
335,432,
334,434,
331,433,
329,437,
328,436,
331,439,
329,442,
329,442,
329,446,
327,447,
327,448,
327,449,
324,450,
326,450,
326,452,
327,453,
324,454,
325,454,
322,459,
323,462,
325,463,
327,467,
326,474,
329,480,
326,488,
326,498,
324,509,
326,521,
325,535,
326,550,
324,566,
323,582,
323,598,
330,616,
327,635,
329,653,
330,669,
330,687,
334,704,
335,720,
333,735,
336,749,
339,760,
340,772,
343,779,
340,788,
342,793,
345,795,
347,799,
351,798,
347,793,
349,789,
348,783,
352,775,
355,765,
354,756,
353,747,
356,730,
354,716,
355,701,
354,686,
351,668,
350,651,
351,635,
354,618,
354,602,
351,586,
352,570,
352,555,
352,542,
352,529,
352,515,
349,504,
349,491,
350,480,
351,470,
352,464,
350,454,
352,446,
352,435,
350,429,
351,424,
347,418,
346,411,
346,408,
346,404,
343,402,
340,402,
340,400,
337,399,
335,400,
335,403,
329,405,
328,408,
332,410,
329,413,
330,420,
328,426,
324,430,
325,436,
326,442,
322,448,
322,455,
323,461,
321,467,
325,475,
322,481,
321,487,
322,495,
322,499,
323,505,
325,510,
326,514,
326,519,
327,522,
330,523,
333,526,
331,529,
333,531,
334,531,
336,530,
336,531,
335,530,
333,528,
337,527,
338,522,
335,520,
336,516,
335,512,
335,509,
335,503,
338,500,
336,496,
337,491,
336,488,
338,482,
338,478,
336,472,
337,468,
338,463,
337,460,
336,456,
338,453,
336,449,
336,444,
338,441,
336,440,
335,436,
334,433,
335,431,
337,430,
334,429,
333,428,
331,425,
332,425,
333,424,
334,425,
334,424,
334,423,
332,422,
334,421,
336,423,
334,424,
333,422,
334,425,
336,426,
333,427,
336,428,
336,429,
333,430,
334,430,
335,430,
331,433,
333,436,
334,437,
329,439,
336,441,
333,443,
335,446,
333,450,
334,453,
332,456,
333,464,
333,471,
330,479,
333,491,
331,502,
333,518,
334,534,
332,547,
331,568,
330,583,
330,603,
332,624,
333,642,
330,660,
334,680,
332,698,
331,713,
330,730,
332,745,
336,757,
335,770,
334,781,
334,789,
338,797,
338,801,
339,805,
340,807,
341,806,
342,801,
345,796,
346,790,
348,781,
348,771,
352,760,
353,747,
357,733,
355,718,
354,699,
357,685,
359,668,
358,649,
360,634,
359,616,
355,598,
361,580,
360,563,
358,547,
356,532,
353,516,
351,499,
350,486,
349,476,
346,463,
348,453,
346,442,
345,432,
343,426,
342,417,
340,408,
338,402,
337,395,
337,392,
335,388,
334,383,
333,381,
331,376,
334,380,
333,379,
334,382,
333,382,
332,387,
334,391,
331,398,
327,403,
328,410,
330,414,
324,421,
326,429,
321,438,
320,445,
323,453,
324,462,
325,470,
322,477,
322,484,
323,488,
325,496,
323,502,
323,508,
322,511,
326,516,
325,518,
327,523,
322,524,
325,527,
328,530,
324,530,
326,529,
328,529,
323,526,
328,524,
331,521,
329,518,
330,515,
330,512,
331,508,
332,502,
334,499,
334,496,
335,492,
330,487,
336,482,
335,477,
334,473,
332,469,
336,464,
337,462,
338,460,
337,456,
336,453,
339,451,
335,446,
335,446,
335,444,
334,442,
332,441,
335,438,
332,437,
333,436,
333,433,
330,432,
328,431,
328,432,
326,433,
325,434,
328,433,
328,432,
327,432,
327,433,
329,432,
327,434,
329,433,
331,434,
330,433,
330,434,
331,434,
330,434,
327,435,
330,436,
325,436,
329,436,
330,436,
331,437,
328,438,
328,437,
328,437,
328,436,
330,437,
325,439,
331,443,
330,444,
327,446,
332,451,
332,457,
332,465,
331,475,
328,490,
328,503,
327,518,
326,535,
327,552,
326,569,
325,589,
325,608,
325,627,
320,646,
325,665,
324,685,
325,703,
324,719,
328,735,
331,752,
331,767,
337,778,
338,786,
338,793,
342,797,
346,799,
346,800,
345,798,
351,794,
351,787,
353,778,
356,772,
358,760,
357,748,
354,732,
358,719,
357,702,
355,684,
354,669,
354,649,
352,632,
355,615,
352,596,
349,578,
350,562,
347,544,
347,527,
347,512,
342,497,
342,481,
338,469,
338,457,
338,446,
335,435,
334,425,
335,416,
334,404,
331,398,
331,391,
329,384,
331,376,
331,373,
331,369,
331,366,
330,365,
329,365,
330,365,
331,366,
330,370,
329,372,
331,377,
328,380,
331,387,
329,392,
330,399,
328,409,
331,415,
332,424,
332,431,
331,441,
328,450,
331,458,
334,469,
332,476,
332,484,
331,491,
332,499,
334,504,
333,514,
332,517,
332,520,
331,525,
329,529,
334,531,
331,532,
330,532,
334,531,
332,529,
330,529,
329,527,
331,525,
331,519,
331,517,
329,515,
328,510,
324,506,
326,502,
327,499,
324,497,
327,492,
326,487,
327,482,
327,479,
332,476,
328,470,
330,467,
331,461,
332,457,
334,454,
333,451,
332,446,
332,441,
334,440,
334,437,
332,435,
334,433,
335,430,
334,429,
336,431,
338,429,
335,430,
330,430,
333,429,
333,429,
332,431,
332,431,
331,431,
331,434,
330,436,
328,436,
328,438,
329,436,
330,440,
331,440,
329,443,
330,442,
328,444,
329,443,
328,444,
327,446,
326,446,
328,447,
329,446,
328,448,
325,448,
326,450,
327,448,
327,451,
328,451,
329,453,
327,455,
324,458,
329,459,
331,466,
330,474,
328,482,
328,491,
327,503,
327,517,
326,532,
330,547,
324,563,
332,580,
331,598,
332,618,
332,636,
331,655,
334,672,
334,690,
336,709,
336,726,
335,742,
340,757,
338,767,
339,777,
341,787,
346,793,
344,798,
348,798,
350,800,
351,798,
351,794,
351,787,
352,780,
354,772,
354,760,
353,746,
353,731,
353,715,
354,698,
355,682,
355,665,
351,645,
355,630,
354,613,
353,595,
350,580,
351,564,
349,546,
350,530,
348,516,
346,501,
347,487,
342,473,
346,459,
347,450,
344,438,
343,428,
343,421,
343,410,
341,404,
340,396,
337,388,
337,385,
336,381,
334,377,
331,376,
329,375,
331,374,
330,375,
327,376,
324,380,
325,384,
323,387,
322,394,
322,398,
323,405,
325,413,
324,422,
322,427,
325,437,
323,444,
326,451,
323,461,
327,465,
327,475,
327,483,
327,491,
326,496,
326,503,
326,506,
325,512,
325,519,
326,519,
328,524,
329,527,
327,531,
329,532,
332,533,
332,533,
334,533,
335,531,
336,530,
336,525,
340,522,
339,517,
338,514,
340,509,
339,507,
339,502,
339,494,
340,492,
339,485,
340,483,
337,477,
341,474,
342,470,
339,464,
335,460,
335,455,
339,451,
336,448,
339,445,
337,439,
339,437,
338,432,
335,429,
335,427,
332,425,
332,424,
331,420,
333,420,
330,419,
327,417,
328,417,
325,416,
323,416,
327,417,
321,415,
322,416,
324,416,
324,417,
322,420,
324,418,
323,419,
327,420,
324,421,
322,422,
325,422,
324,421,
324,423,
325,424,
322,428,
324,428,
323,430,
326,430,
323,431,
327,434,
326,440,
326,444,
326,449,
325,453,
326,461,
325,471,
323,480,
327,492,
325,506,
327,521,
326,534,
326,552,
328,569,
331,588,
329,606,
330,624,
331,642,
329,661,
335,677,
333,694,
333,712,
336,725,
337,739,
339,752,
337,760,
341,771,
341,776,
344,778,
346,781,
346,783,
347,782,
350,778,
352,773,
354,765,
356,756,
355,749,
355,737,
356,724,
357,710,
356,696,
359,683,
358,667,
357,649,
358,632,
358,615,
359,595,
355,579,
355,562,
357,546,
354,530,
351,515,
348,502,
343,488,
345,475,
342,462,
339,451,
338,441,
337,431,
335,421,
336,413,
335,405,
335,399,
333,391,
332,386,
333,383,
332,381,
329,376,
331,377,
333,375,
333,374,
332,377,
331,376,
333,379,
332,383,
333,387,
335,392,
334,396,
333,403,
334,408,
332,417,
332,425,
334,433,
331,441,
328,448,
330,456,
332,466,
329,472,
326,478,
328,484,
329,490,
329,498,
329,503,
326,508,
328,512,
325,514,
328,519,
324,523,
327,524,
326,524,
327,526,
324,526,
326,521,
327,522,
324,520,
329,517,
324,514,
327,514,
322,510,
326,505,
326,503,
327,499,
330,495,
329,491,
330,490,
331,483,
331,477,
334,476,
332,470,
334,466,
337,461,
337,458,
335,451,
336,447,
338,444,
338,440,
338,437,
339,433,
337,430,
336,429,
336,426,
336,425,
333,425,
335,422,
336,422,
335,417,
333,417,
333,417,
333,417,
330,416,
332,416,
334,417,
331,417,
331,417,
329,418,
330,421,
329,423,
329,426,
330,427,
327,428,
333,430,
327,428,
328,433,
326,435,
328,438,
320,437,
325,444,
325,449,
325,457,
322,465,
321,472,
321,483,
322,495,
322,506,
321,521,
322,535,
321,554,
322,571,
322,589,
322,608,
323,626,
325,643,
330,662,
328,680,
330,695,
328,711,
330,723,
334,735,
334,745,
329,752,
330,760,
335,763,
336,765,
332,769,
339,766,
340,761,
344,759,
347,753,
348,746,
350,737,
352,726,
354,712,
356,700,
354,689,
356,671,
352,656,
355,641,
357,623,
357,609,
356,593,
356,580,
351,561,
356,546,
352,532,
353,519,
349,503,
349,492,
347,478,
343,469,
345,458,
338,445,
338,436,
338,426,
334,416,
336,408,
333,401,
335,394,
334,387,
330,384,
331,378,
324,378,
323,375,
326,375,
323,374,
323,375,
323,377,
324,379,
325,382,
326,388,
326,391,
324,397,
322,403,
326,409,
326,417,
326,424,
324,430,
326,439,
331,445,
334,454,
332,462,
331,470,
329,476,
335,481,
335,488,
337,498,
335,500,
335,505,
337,508,
338,515,
336,520,
340,521,
339,521,
340,523,
339,522,
339,523,
339,524,
340,522,
338,518,
339,516,
339,514,
339,513,
335,508,
336,504,
336,499,
337,496,
336,493,
332,488,
333,486,
334,480,
332,476,
328,472,
330,470,
325,467,
325,463,
325,458,
325,457,
323,452,
321,445,
325,444,
323,442,
324,437,
324,436,
323,432,
324,429,
321,428,
325,429,
324,427,
326,425,
327,426,
330,425,
328,426,
325,424,
329,422,
329,422,
332,423,
327,423,
330,422,
329,423,
330,421,
332,423,
335,424,
330,424,
330,425,
328,424,
331,427,
331,428,
328,428,
327,429,
330,431,
329,432,
327,436,
332,440,
329,443,
330,447,
330,454,
331,461,
330,472,
326,482,
333,495,
328,507,
330,525,
329,543,
332,560,
331,577,
334,594,
333,612,
334,630,
332,648,
332,666,
337,680,
335,694,
337,707,
337,720,
337,733,
339,741,
340,750,
339,755,
337,759,
335,761,
340,760,
340,760,
342,756,
343,751,
343,744,
344,736,
345,726,
347,717,
341,704,
343,690,
342,677,
343,661,
349,645,
345,631,
344,614,
343,598,
343,583,
344,568,
342,553,
342,537,
341,522,
342,509,
338,496,
338,482,
337,470,
337,456,
339,447,
335,435,
336,425,
337,419,
337,408,
336,400,
333,393,
335,387,
334,380,
335,375,
331,372,
334,371,
333,370,
331,369,
332,369,
333,372,
332,377,
331,382,
330,385,
331,387,
334,394,
335,403,
333,410,
334,417,
335,422,
335,430,
336,440,
334,447,
334,456,
333,462,
332,471,
332,477,
331,485,
326,493,
330,500,
330,505,
329,512,
326,516,
324,519,
325,523,
324,526,
324,528,
321,530,
321,530,
321,531,
320,528,
323,527,
321,528,
320,523,
320,521,
319,517,
320,514,
321,511,
319,507,
318,504,
322,498,
323,493,
325,489,
325,486,
326,482,
329,480,
328,475,
328,470,
330,467,
326,460,
329,458,
331,452,
330,451,
328,445,
332,443,
330,442,
332,437,
330,433,
332,432,
329,430,
329,428,
331,426,
332,426,
331,425,
328,425,
327,424,
332,422,
329,422,
327,422,
327,423,
328,421,
331,425,
330,426,
327,428,
327,431,
328,431,
327,432,
331,434,
328,436,
329,436,
329,438,
330,438,
329,440,
329,440,
328,440,
328,441,
328,441,
328,441,
330,445,
328,446,
328,448,
328,451,
327,454,
331,460,
329,466,
329,473,
329,483,
329,493,
331,504,
329,517,
327,533,
327,547,
330,562,
331,578,
328,595,
328,609,
334,626,
334,641,
336,658,
336,675,
336,685,
333,702,
339,709,
336,721,
339,731,
338,736,
339,741,
340,742,
340,746,
343,744,
341,740,
344,736,
345,730,
345,723,
344,715,
345,704,
346,693,
347,679,
343,664,
346,651,
345,640,
344,625,
345,609,
339,592,
343,578,
339,562,
338,546,
341,533,
341,519,
338,504,
337,492,
337,478,
334,465,
334,454,
333,446,
336,434,
338,424,
337,412,
337,402,
338,395,
337,388,
335,379,
334,375,
334,370,
329,366,
330,363,
332,361,
333,361,
330,362,
331,364,
332,367,
328,371,
328,376,
327,380,
330,388,
328,396,
328,403,
332,412,
330,419,
328,432,
327,442,
327,452,
328,461,
327,472,
323,480,
325,489,
325,495,
328,503,
327,508,
329,514,
329,523,
327,528,
327,529,
327,536,
324,539,
327,541,
327,544,
327,545,
329,543,
328,547,
329,545,
328,544,
331,542,
331,540,
332,536,
335,532,
333,529,
329,523,
334,518,
335,513,
333,510,
337,504,
333,500,
337,495,
337,489,
336,484,
338,480,
335,476,
334,472,
338,466,
338,462,
336,458,
337,456,
335,453,
334,447,
334,446,
334,443,
329,439,
331,436,
329,433,
328,432,
326,430,
324,427,
328,427,
327,423,
327,423,
325,425,
326,426,
323,423,
325,426,
322,426,
325,425,
324,425,
327,426,
328,426,
328,428,
329,430,
326,430,
326,430,
329,433,
331,434,
328,438,
330,440,
330,442,
329,444,
333,448,
330,452,
329,455,
328,458,
325,461,
326,466,
327,476,
326,483,
327,492,
328,505,
327,517,
326,528,
325,548,
328,561,
328,575,
330,593,
331,611,
330,626,
326,644,
330,660,
333,678,
332,693,
332,707,
335,717,
337,729,
337,737,
337,744,
337,750,
337,753,
337,755,
341,754,
343,750,
343,748,
345,743,
346,739,
345,729,
348,721,
347,708,
347,697,
349,682,
353,669,
351,655,
353,639,
353,622,
353,606,
353,590,
354,573,
351,557,
350,540,
349,526,
349,510,
346,497,
349,484,
347,470,
344,458,
344,448,
343,438,
343,430,
342,419,
341,411,
339,402,
338,395,
337,387,
333,380,
331,376,
333,370,
333,366,
335,364,
333,363,
331,363,
332,363,
332,365,
332,367,
332,372,
331,376,
334,383,
334,390,
332,398,
330,406,
331,416,
329,425,
329,435,
331,444,
331,454,
330,463,
330,471,
328,478,
325,487,
327,497,
326,504,
328,512,
323,518,
325,526,
327,532,
328,537,
327,540,
329,543,
328,544,
328,547,
327,548,
330,548,
331,546,
333,545,
333,542,
331,539,
332,536,
333,536,
333,530,
332,526,
332,522,
333,514,
332,513,
334,508,
334,504,
332,498,
334,493,
332,486,
336,481,
331,475,
332,470,
333,466,
334,462,
335,456,
333,454,
332,451,
330,444,
329,441,
329,440,
325,438,
324,437,
327,434,
326,431,
328,431,
325,428,
323,428,
323,427,
323,426,
325,426,
320,426,
322,424,
321,424,
324,424,
322,425,
325,427,
324,428,
324,428,
327,428,
325,426,
327,428,
329,431,
328,431,
328,435,
331,435,
331,435,
328,436,
331,438,
330,440,
332,443,
332,448,
331,454,
330,459,
330,465,
331,476,
332,484,
332,496,
331,509,
332,522,
331,539,
331,554,
333,571,
333,588,
333,606,
335,624,
331,644,
331,662,
329,679,
331,696,
333,711,
335,723,
332,739,
335,748,
335,758,
335,765,
338,769,
337,773,
337,775,
338,774,
340,773,
341,769,
341,763,
342,759,
340,749,
343,740,
345,727,
346,715,
341,704,
343,688,
346,673,
344,658,
346,641,
344,623,
342,604,
345,587,
343,568,
338,553,
344,538,
340,522,
338,507,
340,493,
340,480,
339,469,
338,458,
338,447,
340,435,
337,427,
339,418,
338,409,
337,403,
336,393,
336,387,
332,382,
334,379,
333,374,
333,373,
333,372,
329,371,
331,373,
330,373,
330,378,
333,380,
328,386,
331,391,
328,397,
334,404,
332,411,
332,419,
332,428,
329,434,
333,442,
331,450,
331,458,
327,468,
329,476,
330,479,
329,486,
328,497,
331,500,
327,506,
330,512,
329,519,
329,524,
328,528,
326,532,
329,535,
326,535,
327,536,
327,536,
324,535,
322,535,
324,533,
325,533,
329,531,
329,528,
330,527,
332,522,
332,518,
334,514,
332,511,
334,504,
337,504,
338,498,
336,497,
335,490,
335,487,
337,482,
339,477,
338,473,
336,469,
337,463,
337,462,
334,459,
333,456,
335,453,
333,450,
336,448,
336,446,
333,444,
333,441,
335,437,
336,437,
335,435,
337,433,
338,435,
335,433,
338,434,
338,434,
338,433,
336,433,
335,434,
338,435,
336,435,
334,434,
331,435,
332,434,
333,435,
332,434,
332,435,
331,435,
330,436,
330,435,
330,436,
330,436,
325,436,
325,437,
325,437,
323,438,
320,441,
324,442,
322,444,
324,448,
324,452,
324,459,
322,465,
325,471,
317,480,
322,488,
324,498,
323,510,
322,525,
324,542,
324,558,
325,577,
325,596,
324,616,
324,634,
325,655,
323,674,
326,692,
325,710,
326,725,
328,740,
329,753,
331,763,
331,771,
333,777,
336,782,
338,783,
341,784,
340,784,
342,780,
340,773,
342,766,
342,759,
344,744,
343,732,
347,720,
346,705,
343,693,
345,677,
344,665,
345,649,
345,632,
343,615,
344,598,
345,579,
346,565,
345,547,
344,532,
347,516,
345,501,
346,488,
345,475,
347,463,
345,450,
348,440,
342,433,
349,421,
350,414,
347,406,
344,399,
342,392,
341,386,
342,384,
338,381,
338,376,
337,373,
337,373,
338,374,
334,374,
334,375,
330,376,
332,381,
333,386,
329,391,
329,398,
329,401,
329,409,
328,415,
327,425,
327,432,
328,437,
329,448,
329,455,
330,462,
328,471,
327,481,
330,488,
330,497,
330,507,
328,512,
329,519,
325,524,
330,529,
330,535,
328,537,
328,541,
327,542,
330,542,
329,544,
327,544,
330,543,
325,542,
326,539,
328,538,
326,534,
323,530,
329,528,
326,521,
327,517,
327,511,
328,506,
326,502,
328,494,
328,493,
327,488,
329,483,
326,477,
329,474,
329,468,
329,463,
330,460,
328,454,
332,451,
327,448,
330,445,
328,444,
326,442,
329,441,
326,438,
329,437,
328,436,
330,435,
331,431,
331,429,
332,430,
331,428,
334,426,
334,427,
336,426,
334,424,
334,426,
333,428,
333,428,
332,427,
330,428,
334,428,
331,429,
333,430,
332,433,
333,433,
332,435,
328,437,
329,438,
330,438,
327,440,
328,442,
326,441,
329,443,
328,444,
329,445,
327,446,
326,447,
324,448,
326,449,
326,452,
327,453,
326,453,
324,458,
326,457,
325,461,
324,466,
323,473,
322,479,
323,487,
319,497,
318,507,
320,521,
318,534,
322,550,
321,567,
318,583,
321,602,
321,620,
326,638,
322,653,
325,671,
324,689,
326,704,
329,715,
332,730,
332,740,
332,748,
334,754,
333,763,
338,769,
339,771,
340,771,
341,772,
344,770,
349,764,
351,760,
350,751,
351,743,
355,729,
354,715,
348,703,
354,686,
353,669,
355,653,
354,637,
353,620,
353,605,
354,591,
353,572,
352,557,
350,542,
349,527,
347,513,
349,497,
346,484,
346,471,
346,461,
342,449,
345,437,
343,426,
338,417,
342,410,
337,403,
337,394,
336,388,
335,381,
331,379,
333,374,
332,369,
331,366,
333,367,
333,367,
331,369,
330,368,
334,373,
333,378,
331,381,
331,389,
329,393,
331,400,
328,409,
330,416,
330,425,
329,435,
326,442,
327,453,
324,463,
324,469,
323,478,
325,487,
324,495,
323,503,
323,509,
324,516,
324,520,
326,526,
325,531,
326,535,
328,540,
330,540,
330,541,
330,543,
331,543,
331,542,
333,543,
331,540,
333,539,
331,536,
333,534,
333,530,
332,525,
332,523,
333,519,
330,514,
333,508,
331,502,
334,498,
332,493,
334,490,
333,483,
337,480,
338,477,
339,473,
334,467,
332,463,
337,458,
338,456,
337,451,
337,447,
337,444,
338,440,
339,435,
331,431,
333,428,
336,427,
333,426,
338,424,
338,427,
338,426,
337,426,
338,426,
336,428,
335,428,
334,426,
333,429,
336,429,
335,431,
333,431,
335,434,
332,438,
335,439,
335,439,
333,442,
335,442,
333,444,
334,443,
334,445,
332,446,
329,449,
323,449,
327,449,
326,450,
325,452,
323,454,
321,454,
322,455,
322,456,
323,455,
320,457,
319,457,
321,455,
320,456,
320,459,
319,462,
321,464,
315,468,
322,474,
320,478,
320,486,
321,494,
323,503,
324,512,
327,524,
325,539,
328,553,
328,570,
330,585,
328,601,
328,617,
332,635,
332,652,
334,666,
335,681,
336,692,
336,705,
337,718,
338,728,
339,735,
337,741,
334,744,
337,747,
340,748,
338,748,
339,747,
338,743,
337,740,
337,731,
340,724,
340,714,
340,703,
339,690,
344,676,
345,662,
342,646,
343,632,
344,615,
341,599,
344,584,
343,566,
341,552,
341,538,
344,522,
343,508,
343,494,
339,481,
338,469,
342,456,
337,442,
337,430,
336,421,
334,411,
335,401,
336,395,
332,385,
335,380,
331,374,
333,369,
331,365,
332,363,
331,361,
330,360,
330,360,
332,362,
330,364,
330,368,
332,372,
328,376,
332,383,
328,389,
331,396,
330,403,
328,411,
327,419,
331,429,
330,438,
327,448,
327,459,
330,467,
331,477,
329,486,
332,495,
331,503,
330,511,
333,519,
332,529,
329,534,
330,539,
332,543,
334,547,
333,550,
331,552,
332,551,
334,552,
333,552,
334,554,
334,552,
337,550,
338,547,
337,544,
337,540,
339,538,
337,534,
337,530,
335,524,
337,521,
334,516,
334,511,
335,505,
337,500,
332,495,
335,490,
331,487,
335,482,
335,480,
334,477,
336,474,
333,470,
333,466,
331,465,
333,461,
331,458,
331,454,
327,450,
327,447,
327,445,
326,444,
325,443,
324,442,
325,441,
326,441,
323,440,
321,441,
324,440,
324,439,
324,440,
322,441,
322,439,
324,440,
326,440,
324,442,
325,439,
325,443,
325,442,
326,443,
327,444,
329,444,
329,446,
329,447,
327,447,
331,449,
331,450,
328,450,
329,452,
332,454,
331,457,
332,459,
332,460,
332,464,
329,467,
330,470,
330,475,
331,486,
330,494,
329,504,
333,513,
330,528,
333,542,
333,556,
332,570,
336,587,
334,603,
338,618,
336,636,
337,651,
338,668,
339,682,
338,696,
337,708,
336,719,
338,729,
338,737,
338,743,
338,750,
338,752,
339,753,
343,754,
338,751,
338,747,
340,741,
339,733,
342,724,
343,710,
341,700,
340,687,
342,673,
341,659,
344,639,
343,627,
344,613,
344,595,
344,581,
342,565,
342,550,
343,534,
342,519,
344,505,
342,492,
340,479,
342,467,
342,453,
340,441,
340,432,
339,421,
337,411,
335,401,
335,395,
335,389,
332,383,
332,376,
334,372,
333,365,
335,364,
332,364,
330,362,
330,362,
334,364,
331,367,
330,371,
329,376,
328,379,
330,384,
331,392,
327,399,
328,405,
325,412,
331,420,
328,429,
330,437,
328,448,
330,457,
332,467,
329,475,
330,485,
330,493,
330,502,
332,510,
331,517,
331,523,
329,527,
328,534,
325,538,
330,542,
329,547,
328,550,
330,552,
330,551,
333,552,
335,554,
331,552,
331,550,
331,548,
331,544,
335,540,
332,538,
331,535,
331,529,
331,527,
329,525,
332,521,
330,516,
331,509,
330,506,
332,500,
332,494,
327,489,
331,485,
329,478,
332,476,
331,473,
328,467,
329,464,
330,460,
329,458,
329,455,
328,452,
325,446,
329,446,
330,445,
326,444,
324,440,
324,438,
327,436,
327,435,
327,436,
326,439,
324,442,
327,443,
324,445,
329,447,
328,446,
326,445,
329,446,
329,447,
330,450,
327,447,
325,449,
329,447,
329,446,
330,445,
326,447,
327,447,
328,448,
329,450,
328,448,
329,450,
329,450,
330,451,
329,451,
328,453,
329,456,
328,461,
330,467,
328,471,
329,480,
329,489,
327,498,
331,509,
330,522,
329,539,
331,555,
327,571,
334,588,
332,605,
333,624,
334,641,
337,661,
336,677,
338,696,
335,713,
335,729,
335,743,
333,755,
333,767,
332,775,
330,782,
333,785,
331,790,
337,790,
334,786,
339,783,
339,775,
334,768,
338,757,
337,747,
338,735,
338,723,
338,709,
343,692,
343,677,
342,662,
340,645,
343,631,
343,615,
344,599,
350,582,
346,569,
347,556,
348,539,
347,527,
346,516,
344,499,
341,489,
344,478,
340,466,
341,454,
336,446,
336,437,
336,427,
336,417,
335,410,
334,404,
334,396,
335,392,
334,388,
332,384,
334,383,
332,381,
335,381,
331,378,
333,381,
333,384,
332,386,
326,387,
333,395,
332,400,
329,409,
332,414,
331,419,
329,428,
331,435,
330,446,
328,454,
329,462,
332,468,
332,479,
329,487,
331,494,
330,502,
332,510,
334,516,
336,524,
334,529,
336,534,
336,536,
337,542,
335,546,
332,547,
333,548,
334,550,
335,549,
335,548,
334,550,
333,548,
332,545,
334,543,
335,542,
332,535,
334,532,
336,527,
333,522,
334,517,
335,512,
332,504,
334,501,
335,494,
334,488,
333,483,
331,478,
333,472,
332,468,
334,465,
332,461,
329,458,
331,455,
328,451,
330,450,
329,446,
328,443,
329,439,
330,439,
331,438,
329,437,
328,436,
327,435,
328,434,
328,435,
325,434,
328,435,
327,435,
330,436,
331,437,
330,439,
330,440,
330,441,
331,441,
335,443,
334,445,
333,446,
334,448,
335,450,
336,451,
338,454,
337,455,
336,455,
338,455,
338,456,
336,457,
335,456,
335,457,
338,456,
337,458,
336,460,
337,462,
337,465,
337,465,
335,470,
333,470,
330,476,
331,477,
331,481,
327,482,
327,487,
327,493,
326,501,
327,510,
326,519,
325,534,
323,549,
322,564,
326,580,
328,597,
329,614,
331,632,
331,651,
330,671,
333,690,
331,714,
332,734,
332,751,
332,771,
338,786,
337,795,
340,805,
340,813,
340,820,
345,818,
344,811,
346,798,
346,783,
343,767,
345,749,
345,730,
344,712,
344,692,
347,673,
345,652,
346,635,
346,615,
344,597,
343,577,
345,559,
344,542,
345,528,
343,512,
344,499,
340,485,
339,471,
340,460,
340,450,
339,439,
340,430,
338,423,
340,418,
340,410,
338,407,
338,398,
337,392,
334,387,
334,383,
335,379,
335,377,
334,374,
334,375,
334,373,
332,373,
333,377,
330,378,
332,383,
333,388,
330,391,
333,395,
335,402,
331,409,
335,415,
334,422,
333,428,
334,437,
335,445,
333,453,
334,461,
333,468,
334,476,
334,486,
334,495,
333,502,
335,510,
335,517,
335,525,
333,530,
334,535,
330,538,
332,540,
334,545,
331,547,
330,548,
331,547,
330,548,
331,546,
328,547,
330,542,
329,543,
331,541,
334,541,
332,538,
336,534,
332,529,
335,524,
335,520,
334,516,
335,512,
336,508,
335,500,
334,496,
334,493,
333,488,
333,483,
332,480,
333,475,
334,469,
337,465,
333,460,
336,457,
335,453,
335,451,
331,447,
333,445,
334,442,
332,439,
336,441,
336,438,
336,438,
336,436,
341,438,
341,436,
340,434,
339,434,
340,433,
340,431,
342,433,
340,434,
342,435,
335,436,
340,438,
336,438,
339,439,
336,441,
337,442,
335,442,
335,446,
331,448,
331,450,
330,449,
331,452,
328,455,
328,456,
324,455,
327,456,
327,457,
325,457,
325,459,
324,459,
324,459,
323,461,
327,462,
324,464,
326,463,
324,463,
326,462,
326,463,
327,465,
326,467,
326,470,
326,476,
327,483,
327,491,
327,500,
327,512,
325,523,
329,538,
328,552,
331,567,
328,582,
329,599,
330,616,
331,636,
331,651,
327,667,
330,683,
331,699,
329,711,
329,725,
327,735,
331,744,
330,752,
333,759,
334,764,
334,764,
336,765,
339,764,
339,760,
340,756,
343,750,
343,740,
342,731,
345,719,
346,707,
347,691,
347,675,
349,660,
350,647,
348,630,
345,614,
347,596,
347,580,
348,563,
346,548,
345,531,
344,516,
344,501,
345,488,
342,478,
341,466,
338,453,
341,441,
341,429,
342,422,
342,413,
341,405,
343,398,
344,392,
341,385,
341,380,
340,377,
341,374,
342,373,
339,374,
337,373,
337,375,
339,379,
335,380,
336,386,
337,391,
337,396,
335,402,
335,411,
336,418,
333,424,
330,435,
332,445,
331,453,
332,462,
333,474,
332,482,
332,491,
333,501,
333,509,
332,518,
332,525,
331,533,
330,539,
333,545,
331,550,
333,553,
332,556,
333,559,
332,560,
334,562,
329,561,
330,560,
330,558,
330,558,
331,555,
328,552,
327,548,
327,544,
328,538,
325,534,
325,529,
326,525,
324,519,
327,513,
327,510,
328,504,
326,498,
324,496,
325,489,
325,484,
326,481,
322,475,
327,470,
327,467,
329,463,
327,460,
329,455,
326,451,
329,448,
330,446,
329,442,
331,438,
329,438,
333,433,
334,435,
332,435,
331,435,
329,434,
332,435,
333,436,
334,436,
331,436,
331,436,
333,439,
333,438,
333,442,
331,444,
331,444,
335,447,
335,448,
336,448,
334,449,
334,450,
333,451,
335,453,
331,453,
330,455,
330,457,
328,457,
329,458,
329,459,
329,457,
328,458,
327,460,
328,460,
331,460,
327,463,
324,465,
323,470,
325,474,
324,479,
322,486,
323,495,
322,503,
324,513,
324,527,
325,542,
321,557,
321,574,
324,590,
324,608,
324,625,
326,645,
326,664,
325,681,
330,699,
329,715,
329,729,
330,745,
331,755,
331,767,
333,777,
335,783,
336,789,
338,793,
340,794,
340,795,
340,792,
341,788,
345,782,
346,775,
347,765,
348,755,
347,741,
351,729,
347,716,
352,700,
350,683,
351,664,
351,646,
348,629,
354,615,
354,596,
355,580,
356,563,
358,548,
355,534,
352,518,
352,504,
355,490,
352,479,
353,469,
350,456,
350,445,
348,434,
346,422,
344,413,
341,402,
337,393,
339,388,
336,383,
336,378,
334,376,
335,374,
333,372,
331,371,
331,372,
329,373,
328,373,
327,376,
329,380,
329,384,
328,391,
329,398,
327,406,
327,412,
327,422,
322,430,
327,440,
327,448,
328,459,
329,468,
331,476,
329,485,
333,496,
331,504,
332,511,
333,520,
332,527,
332,533,
337,541,
336,546,
338,551,
337,554,
336,555,
338,556,
339,558,
334,558,
334,555,
335,554,
333,551,
335,552,
332,547,
330,543,
332,540,
333,536,
331,533,
332,527,
329,521,
328,514,
330,508,
331,503,
329,498,
329,494,
327,489,
329,483,
332,480,
331,476,
330,472,
327,468,
330,466,
330,462,
329,459,
330,458,
330,454,
332,450,
331,447,
330,446,
331,443,
330,442,
330,441,
333,438,
337,438,
336,440,
338,439,
335,435,
340,437,
336,438,
336,438,
336,440,
336,440,
336,440,
334,441,
337,440,
335,439,
334,442,
333,442,
332,443,
330,445,
328,445,
328,447,
327,447,
328,448,
325,451,
325,450,
322,450,
324,452,
324,454,
322,454,
319,453,
321,455,
320,456,
324,459,
322,463,
321,469,
318,475,
325,482,
324,492,
326,504,
324,516,
327,529,
324,544,
326,561,
327,577,
331,596,
325,616,
327,635,
333,652,
332,671,
334,689,
333,705,
336,722,
337,737,
340,753,
341,766,
342,777,
346,785,
345,793,
350,798,
352,804,
352,805,
355,806,
354,801,
356,799,
357,794,
352,789,
356,778,
356,768,
356,757,
354,743,
357,729,
352,712,
354,695,
350,678,
355,661,
353,643,
349,625,
352,606,
351,589,
344,571,
346,553,
343,537,
346,523,
341,510,
343,496,
340,483,
342,472,
339,461,
341,449,
339,439,
339,428,
340,420,
341,410,
338,404,
335,397,
335,391,
336,387,
335,380,
336,378,
335,379,
336,378,
339,376,
336,379,
337,384,
339,389,
337,394,
337,398,
337,405,
336,411,
334,419,
336,427,
334,435,
333,443,
336,451,
336,461,
336,470,
335,478,
334,487,
332,494,
330,503,
330,510,
327,517,
325,520,
327,528,
325,532,
325,538,
325,541,
325,543,
326,543,
326,547,
323,548,
325,546,
323,544,
325,543,
325,541,
325,541,
324,536,
325,532,
327,529,
326,524,
327,518,
328,514,
329,508,
330,502,
328,497,
332,491,
330,485,
332,482,
333,476,
336,469,
334,466,
336,461,
336,457,
340,451,
339,447,
339,444,
339,440,
338,438,
339,432,
338,430,
338,428,
336,424,
336,422,
334,419,
336,418,
333,418,
331,418,
330,416,
332,416,
330,418,
331,419,
330,419,
328,419,
327,419,
330,418,
332,422,
330,424,
331,425,
333,427,
331,427,
332,430,
332,433,
333,434,
333,438,
334,437,
336,441,
332,442,
332,443,
333,446,
334,447,
335,449,
335,450,
333,450,
335,450,
333,451,
334,451,
333,454,
334,452,
329,451,
333,454,
334,457,
332,456,
328,455,
330,458,
328,458,
330,461,
331,464,
326,469,
326,475,
326,479,
327,488,
326,502,
327,511,
326,524,
328,536,
328,552,
330,567,
330,584,
331,602,
334,620,
335,639,
335,658,
337,678,
339,697,
340,712,
339,727,
341,741,
340,751,
340,759,
340,767,
342,773,
345,778,
344,780,
345,780,
344,776,
350,772,
349,765,
349,754,
354,746,
352,732,
355,721,
356,708,
354,695,
352,679,
352,665,
352,649,
353,633,
347,617,
351,602,
347,585,
349,568,
347,553,
348,537,
344,523,
344,508,
345,494,
345,483,
340,470,
342,460,
341,449,
340,440,
342,431,
340,424,
341,416,
336,408,
339,404,
339,398,
335,396,
335,391,
332,388,
334,385,
333,384,
330,386,
330,386,
329,388,
331,392,
334,395,
332,399,
331,406,
330,409,
330,416,
330,425,
331,432,
329,440,
327,447,
329,456,
331,464,
332,474,
332,480,
335,487,
334,496,
336,500,
335,510,
338,515,
335,522,
339,527,
339,532,
338,535,
344,539,
340,542,
343,544,
346,543,
344,542,
348,544,
348,544,
348,541,
350,538,
348,534,
347,532,
346,528,
349,523,
345,517,
343,512,
345,509,
343,503,
342,497,
340,492,
339,487,
341,483,
340,476,
340,475,
340,469,
342,465,
342,462,
340,458,
340,454,
339,449,
339,448,
339,442,
336,441,
335,439,
333,436,
335,434,
333,433,
334,432,
336,431,
336,428,
338,429,
338,430,
337,428,
336,428,
336,428,
334,427,
334,429,
333,430,
332,429,
334,431,
330,430,
328,434,
330,435,
329,436,
329,437,
327,437,
328,439,
325,439,
326,440,
323,440,
322,440,
323,442,
324,443,
325,445,
324,444,
327,445,
324,447,
325,448,
326,446,
324,447,
324,448,
324,451,
326,452,
325,452,
325,452,
325,454,
328,455,
329,457,
325,460,
327,464,
330,470,
332,474,
327,485,
332,491,
331,500,
333,510,
333,524,
333,539,
332,552,
334,568,
331,583,
336,600,
334,617,
334,632,
335,651,
336,665,
340,682,
339,697,
339,712,
338,724,
339,734,
339,744,
340,753,
339,759,
340,762,
342,765,
338,765,
340,764,
344,761,
342,756,
341,752,
343,742,
342,733,
342,724,
342,713,
341,699,
341,685,
341,673,
344,657,
341,639,
338,623,
341,607,
341,590,
342,575,
342,558,
340,540,
341,528,
342,513,
342,499,
341,485,
339,472,
341,458,
337,448,
338,437,
336,429,
336,418,
340,407,
338,401,
336,393,
335,387,
335,381,
335,376,
335,374,
336,371,
334,372,
334,371,
334,371,
335,373,
336,375,
332,379,
332,384,
334,390,
334,394,
334,402,
334,410,
330,415,
332,420,
331,431,
330,440,
329,448,
325,456,
329,466,
326,472,
329,483,
329,489,
328,497,
327,504,
329,510,
329,516,
329,522,
330,527,
328,530,
330,537,
329,539,
330,541,
330,542,
333,543,
333,543,
334,543,
334,543,
333,541,
332,537,
333,534,
335,531,
337,528,
338,524,
336,518,
337,513,
335,510,
337,506,
335,500,
335,496,
336,492,
335,485,
333,484,
334,476,
331,472,
334,469,
332,463,
332,459,
329,455,
328,452,
329,447,
326,445,
328,445,
327,438,
328,437,
330,431,
326,431,
327,430,
329,428,
329,426,
330,424,
332,426,
331,427,
332,427,
330,427,
332,428,
330,428,
332,429,
333,431,
331,430,
328,434,
333,433,
330,436,
330,437,
331,437,
329,440,
333,442,
332,440,
329,446,
330,446,
330,447,
328,448,
329,450,
324,450,
326,452,
326,452,
324,454,
320,454,
322,457,
318,456,
319,458,
320,457,
321,458,
320,459,
319,459,
319,460,
318,460,
321,461,
318,460,
316,460,
317,463,
320,463,
317,464,
318,469,
319,472,
320,476,
317,480,
320,487,
322,498,
320,508,
320,518,
322,530,
322,543,
323,558,
325,573,
324,590,
326,606,
327,621,
324,636,
329,652,
328,669,
328,683,
330,696,
332,711,
328,721,
333,731,
332,740,
336,745,
337,751,
338,754,
339,754,
341,755,
345,751,
345,746,
343,740,
343,731,
342,722,
344,713,
345,701,
345,688,
345,674,
345,660,
346,644,
347,630,
348,614,
345,597,
347,580,
348,566,
346,551,
347,536,
348,521,
346,506,
345,493,
348,481,
347,466,
344,453,
342,443,
343,430,
343,422,
339,413,
340,404,
335,396,
338,389,
336,382,
337,376,
332,372,
328,369,
330,368,
330,364,
325,365,
326,366,
325,367,
323,370,
324,373,
323,378,
321,383,
322,389,
322,398,
323,405,
321,415,
321,424,
317,432,
319,444,
318,452,
321,463,
319,472,
317,481,
321,489,
322,500,
319,509,
321,517,
322,524,
320,533,
321,538,
321,546,
321,549,
325,553,
326,556,
324,560,
327,560,
325,561,
327,562,
323,560,
329,558,
325,557,
325,554,
327,551,
327,547,
328,543,
327,537,
328,534,
325,528,
327,522,
329,517,
328,512,
327,505,
329,500,
326,495,
331,488,
330,484,
330,482,
336,475,
334,470,
334,465,
337,462,
341,458,
335,456,
335,450,
337,450,
337,447,
336,445,
337,442,
333,440,
335,437,
338,436,
338,436,
336,433,
334,433,
337,432,
336,431,
336,432,
338,434,
337,433,
337,434,
338,435,
336,437,
339,438,
335,440,
337,439,
336,442,
338,443,
335,444,
336,445,
337,445,
337,448,
334,449,
332,450,
332,450,
335,452,
335,452,
336,452,
336,454,
335,456,
332,456,
333,457,
335,458,
335,460,
335,461,
334,460,
336,464,
333,465,
333,470,
332,472,
332,481,
330,488,
331,498,
325,508,
327,518,
326,529,
329,544,
329,558,
327,573,
326,589,
327,606,
326,621,
325,634,
324,651,
326,664,
322,679,
324,692,
329,703,
326,716,
326,725,
325,732,
328,738,
330,742,
332,744,
329,744,
333,743,
334,739,
333,735,
338,731,
337,722,
339,714,
338,700,
340,689,
340,676,
341,664,
339,649,
342,637,
343,618,
344,605,
342,589,
343,574,
342,559,
342,542,
344,526,
344,512,
341,497,
340,483,
339,469,
337,459,
338,447,
335,438,
332,426,
337,416,
333,406,
330,399,
330,391,
328,386,
330,380,
331,375,
330,374,
328,371,
328,370,
329,368,
329,368,
329,373,
328,374,
330,376,
328,381,
329,386,
328,392,
328,400,
328,406,
329,413,
329,421,
330,431,
332,438,
327,446,
330,455,
328,465,
329,476,
331,483,
331,491,
333,504,
333,508,
333,518,
335,524,
336,531,
340,533,
340,539,
339,544,
342,547,
344,549,
347,551,
343,551,
346,554,
348,554,
342,552,
344,551,
345,548,
344,547,
342,543,
342,541,
341,533,
340,531,
340,527,
339,522,
335,516,
333,512,
332,507,
331,501,
328,498,
328,490,
332,486,
326,481,
327,478,
329,471,
327,469,
326,465,
325,458,
323,457,
325,456,
321,452,
324,450,
322,444,
327,445,
326,442,
328,441,
326,441,
327,438,
328,437,
328,436,
329,435,
329,434,
330,434,
329,434,
330,436,
330,436,
328,436,
330,437,
329,437,
329,441,
332,440,
328,441,
329,442,
333,442,
333,442,
336,445,
331,447,
333,446,
334,446,
336,448,
336,449,
337,450,
336,449,
337,451,
338,453,
339,455,
338,455,
337,456,
339,458,
338,460,
337,464,
337,469,
336,478,
339,485,
337,496,
332,506,
331,516,
328,529,
330,544,
329,559,
325,576,
327,592,
327,608,
326,626,
327,644,
327,660,
327,679,
325,695,
330,710,
332,723,
330,741,
336,751,
336,759,
337,767,
339,772,
337,775,
341,774,
341,775,
342,771,
342,765,
342,759,
342,753,
339,743,
340,736,
339,723,
341,711,
340,699,
339,685,
341,669,
340,651,
341,639,
338,623,
335,605,
335,587,
336,570,
337,553,
334,539,
334,522,
330,507,
334,493,
333,482,
334,471,
335,460,
335,448,
335,439,
336,430,
336,422,
333,416,
335,407,
335,398,
334,395,
335,390,
334,386,
334,383,
335,381,
336,381,
335,380,
334,379,
335,380,
336,386,
336,389,
338,395,
336,400,
333,405,
338,411,
338,419,
337,427,
337,434,
334,440,
337,448,
336,455,
337,465,
334,472,
334,478,
331,488,
332,495,
332,503,
332,510,
329,517,
330,522,
328,527,
329,534,
327,537,
327,540,
330,545,
328,549,
325,551,
327,552,
328,551,
326,551,
326,551,
327,549,
326,547,
328,545,
326,544,
328,538,
330,535,
328,530,
331,526,
329,521,
334,515,
334,509,
334,505,
333,499,
333,494,
335,488,
336,483,
338,478,
336,472,
336,465,
336,459,
339,453,
340,448,
338,443,
338,441,
338,435,
336,434,
340,436,
337,435,
341,435,
341,432,
341,432,
341,429,
340,431,
342,430,
341,430,
339,432,
341,434,
340,433,
338,433,
335,433,
337,436,
337,436,
335,438,
336,440,
336,439,
334,441,
334,443,
332,445,
329,445,
333,448,
330,446,
331,449,
330,451,
325,452,
326,449,
326,453,
325,454,
327,455,
323,458,
323,458,
321,460,
325,463,
325,464,
322,467,
319,471,
322,474,
319,480,
321,489,
319,496,
322,506,
320,519,
324,533,
324,547,
324,562,
324,581,
325,596,
328,615,
328,632,
323,650,
328,669,
329,686,
330,702,
330,717,
328,731,
328,744,
331,754,
333,766,
335,775,
333,778,
335,781,
335,783,
339,783,
339,781,
339,776,
340,769,
340,763,
342,752,
342,742,
340,731,
342,718,
344,706,
343,691,
346,677,
347,662,
344,646,
342,628,
343,610,
345,595,
345,581,
344,564,
345,547,
345,532,
344,519,
343,503,
341,490,
342,477,
342,464,
341,452,
335,444,
340,434,
338,426,
337,418,
339,412,
339,405,
339,398,
336,393,
336,389,
333,386,
331,383,
331,381,
332,379,
333,381,
331,383,
333,385,
329,388,
331,392,
331,396,
329,401,
329,408,
328,415,
329,422,
328,429,
329,437,
330,447,
331,452,
331,461,
331,469,
332,476,
332,484,
330,492,
328,499,
331,506,
333,512,
335,518,
330,523,
330,525,
334,531,
334,534,
334,538,
331,540,
333,542,
333,541,
334,541,
337,541,
339,542,
337,539,
338,539,
340,535,
341,534,
337,531,
339,528,
340,521,
337,521,
334,516,
331,511,
330,507,
330,504,
330,497,
328,495,
327,486,
326,483,
324,476,
327,473,
327,468,
328,464,
329,458,
329,455,
329,450,
333,448,
333,444,
333,440,
333,439,
334,436,
336,434,
335,434,
333,431,
335,431,
338,430,
336,430,
333,430,
333,429,
331,429,
331,429,
327,431,
330,432,
329,432,
327,432,
327,434,
328,435,
330,436,
328,437,
327,438,
328,439,
329,442,
328,442,
330,443,
325,444,
328,445,
328,446,
329,449,
330,449,
330,448,
332,452,
334,449,
333,450,
334,452,
335,453,
334,452,
336,456,
332,457,
331,460,
333,461,
331,465,
332,466,
332,469,
329,478,
327,486,
328,495,
328,508,
327,520,
327,534,
326,548,
324,564,
322,582,
324,599,
