PPG A0,PPG A1,event_code
368,640,
362,648,
374,657,
392,665,
403,668,
389,670,
378,672,
390,674,
406,676,
413,677,
402,675,
388,674,
399,676,
413,675,
420,674,
412,672,
394,671,
399,670,
410,670,
419,667,
413,663,
391,657,
396,653,
407,650,
413,644,
407,638,
386,632,
386,629,
397,624,
406,623,
401,620,
378,612,
379,607,
389,604,
396,599,
394,593,
372,587,
366,579,
376,573,
383,566,
378,557,
358,550,
345,539,
353,535,
363,530,
363,523,
342,514,
328,510,
337,507,
346,505,
346,502,
325,497,
314,498,
319,498,
330,498,
336,496,
315,495,
302,492,
306,486,
320,487,
325,483,
315,479,
297,477,
306,479,
316,480,
324,479,
314,476,
297,474,
300,475,
316,471,
324,470,
316,469,
299,467,
303,469,
318,471,
327,474,
321,473,
304,471,
304,471,
318,470,
329,470,
326,468,
306,466,
305,465,
316,464,
326,463,
325,461,
306,457,
302,454,
315,454,
324,452,
326,452,
305,449,
297,447,
309,449,
318,449,
319,451,
299,450,
292,450,
303,449,
314,446,
317,444,
299,441,
287,440,
297,441,
307,440,
312,441,
295,440,
280,441,
289,441,
301,440,
308,443,
295,443,
279,443,
291,446,
300,447,
308,445,
298,440,
280,434,
289,428,
300,425,
311,416,
304,409,
286,405,
292,400,
306,395,
317,391,
308,385,
290,380,
292,375,
304,373,
313,372,
309,371,
289,369,
291,368,
305,369,
315,371,
310,373,
292,374,
287,374,
302,378,
313,380,
311,382,
293,389,
289,394,
305,404,
317,415,
325,428,
306,440,
300,459,
312,477,
325,494,
331,511,
319,529,
308,549,
326,569,
341,588,
350,607,
340,621,
332,634,
348,650,
366,663,
377,677,
369,687,
357,696,
373,705,
387,717,
401,722,
394,729,
381,731,
389,735,
406,738,
419,736,
413,732,
395,727,
402,720,
415,712,
426,703,
421,694,
401,684,
404,678,
416,668,
425,663,
422,655,
401,647,
398,641,
411,639,
422,638,
416,637,
397,634,
391,628,
402,627,
411,624,
409,618,
389,612,
376,604,
390,600,
397,596,
400,590,
377,578,
367,567,
372,553,
382,541,
385,526,
364,511,
346,496,
356,489,
365,478,
365,465,
345,454,
331,445,
335,435,
344,430,
351,423,
332,416,
314,408,
319,404,
330,403,
337,400,
322,398,
302,395,
308,398,
318,401,
323,403,
313,406,
292,408,
296,414,
310,416,
318,421,
310,424,
291,426,
295,431,
306,435,
316,437,
312,438,
293,440,
291,443,
305,447,
317,448,
316,448,
293,448,
293,448,
307,448,
319,447,
318,442,
301,440,
291,437,
307,439,
318,437,
320,438,
302,436,
294,437,
307,439,
319,440,
324,442,
305,440,
294,439,
304,443,
316,444,
322,443,
307,440,
293,441,
302,441,
313,444,
319,442,
306,442,
288,440,
298,441,
309,439,
315,439,
303,438,
282,439,
290,440,
302,440,
310,435,
300,432,
282,428,
286,426,
299,425,
309,420,
303,418,
283,416,
286,415,
298,416,
308,415,
306,411,
285,408,
285,406,
298,406,
308,405,
303,404,
287,400,
285,398,
300,398,
309,395,
310,392,
290,388,
282,385,
296,386,
307,387,
311,387,
291,386,
283,387,
295,393,
309,397,
316,404,
300,408,
290,417,
305,428,
317,437,
325,448,
313,459,
304,472,
317,487,
331,502,
341,516,
333,530,
321,547,
336,562,
353,581,
366,597,
359,612,
347,627,
359,641,
376,656,
388,665,
383,673,
372,677,
381,682,
399,685,
410,686,
408,684,
389,686,
396,686,
411,687,
423,689,
418,688,
396,683,
400,683,
413,678,
422,672,
420,664,
400,656,
395,651,
406,645,
414,634,
412,626,
390,615,
382,609,
393,602,
401,594,
398,587,
375,578,
368,570,
373,567,
385,562,
383,554,
364,547,
352,540,
362,534,
370,529,
372,521,
356,513,
342,506,
351,502,
359,496,
362,491,
346,484,
330,480,
337,475,
344,474,
347,469,
333,466,
315,462,
320,460,
327,457,
332,456,
320,453,
305,450,
308,448,
320,448,
326,449,
318,448,
299,446,
302,448,
312,452,
319,453,
313,453,
298,454,
298,455,
308,458,
317,459,
316,459,
297,457,
297,457,
309,458,
320,458,
316,458,
302,458,
298,458,
308,460,
321,462,
321,461,
304,461,
301,460,
313,465,
319,464,
327,466,
308,461,
299,462,
307,461,
317,463,
320,463,
302,465,
296,468,
305,474,
315,478,
318,481,
305,481,
295,481,
302,483,
312,485,
317,485,
307,482,
293,477,
300,476,
310,474,
313,471,
305,467,
289,466,
291,462,
301,460,
309,457,
301,453,
287,448,
289,446,
300,443,
307,438,
303,434,
286,428,
288,426,
297,425,
304,421,
302,415,
285,409,
285,404,
296,401,
307,399,
304,396,
290,390,
286,389,
298,389,
306,390,
308,389,
294,390,
289,389,
300,394,
308,398,
315,402,
299,405,
294,412,
306,422,
316,431,
321,441,
313,448,
304,461,
319,478,
331,493,
341,509,
334,520,
331,535,
342,551,
356,567,
365,581,
360,593,
352,605,
364,617,
379,631,
387,642,
384,650,
375,656,
381,661,
394,665,
404,669,
400,672,
387,670,
394,670,
403,671,
415,670,
409,664,
394,657,
396,653,
403,650,
413,648,
410,643,
393,640,
391,635,
398,632,
406,630,
400,627,
383,622,
380,619,
389,615,
396,608,
393,600,
379,589,
369,579,
377,574,
384,568,
383,561,
364,552,
356,544,
364,539,
371,530,
372,524,
355,515,
342,506,
348,501,
354,494,
354,490,
341,485,
327,482,
334,483,
339,483,
341,483,
326,481,
311,478,
316,477,
321,475,
326,472,
317,468,
301,465,
309,465,
317,467,
319,466,
312,465,
296,464,
303,465,
309,468,
320,467,
314,466,
298,463,
302,463,
312,462,
320,463,
318,463,
302,460,
304,461,
314,461,
322,461,
320,462,
307,459,
303,458,
313,460,
320,460,
321,459,
305,457,
298,454,
308,455,
315,455,
315,453,
301,448,
295,446,
301,446,
313,447,
313,445,
300,440,
295,441,
300,441,
313,441,
315,439,
306,438,
294,434,
300,432,
309,432,
314,431,
304,427,
293,423,
302,420,
311,418,
315,413,
308,408,
294,405,
298,402,
311,398,
317,395,
309,392,
294,388,
299,386,
309,385,
315,383,
308,379,
294,376,
296,374,
306,374,
312,374,
305,370,
291,370,
290,369,
300,372,
307,373,
305,375,
288,374,
286,374,
297,376,
305,377,
302,381,
289,382,
280,382,
293,387,
302,391,
305,393,
285,396,
279,400,
289,407,
302,415,
304,423,
291,428,
282,438,
293,448,
308,461,
316,474,
308,485,
300,498,
315,514,
328,529,
339,545,
332,558,
324,572,
336,587,
353,601,
367,613,
363,623,
353,633,
363,642,
380,651,
392,657,
388,665,
376,668,
383,670,
396,675,
408,676,
406,676,
391,675,
393,676,
405,675,
417,673,
414,671,
398,665,
397,663,
409,661,
420,657,
417,652,
400,645,
395,640,
404,637,
414,633,
410,626,
392,623,
383,616,
395,613,
402,610,
403,605,
384,599,
376,594,
380,591,
387,588,
391,582,
374,578,
361,570,
370,566,
377,562,
381,557,
365,548,
348,542,
353,537,
360,533,
362,528,
347,521,
329,516,
333,514,
342,510,
346,507,
332,502,
315,498,
318,496,
327,492,
335,488,
323,486,
290,483,
290,480,
314,480,
335,478,
328,475,
286,474,
285,473,
314,471,
335,469,
333,466,
290,465,
284,464,
313,462,
337,463,
336,464,
294,462,
283,464,
311,466,
339,469,
342,472,
302,474,
283,475,
312,475,
340,479,
349,482,
307,481,
288,485,
308,487,
338,487,
352,488,
314,487,
284,486,
305,486,
330,484,
345,481,
313,476,
277,476,
291,471,
323,471,
340,470,
313,469,
275,468,
288,465,
314,466,
336,464,
313,463,
273,463,
283,463,
310,464,
328,463,
316,466,
273,467,
280,465,
305,464,
327,462,
319,460,
274,457,
274,454,
302,452,
324,448,
321,445,
274,442,
271,439,
300,438,
322,438,
324,441,
278,440,
269,439,
293,439,
319,439,
323,436,
281,435,
261,430,
291,432,
317,432,
325,430,
284,432,
263,431,
285,436,
316,441,
330,446,
293,448,
265,458,
291,467,
320,478,
337,489,
310,500,
278,512,
302,526,
334,542,
358,555,
334,569,
302,584,
323,599,
359,611,
382,623,
365,635,
330,643,
350,654,
380,659,
403,667,
393,676,
355,682,
370,686,
399,692,
427,695,
415,698,
377,699,
380,700,
409,703,
435,699,
432,697,
383,694,
382,688,
410,683,
432,676,
432,668,
382,657,
373,649,
398,642,
421,635,
424,626,
380,618,
361,611,
389,607,
412,599,
415,593,
370,587,
346,580,
369,577,
390,571,
402,567,
362,559,
330,556,
351,552,
374,547,
386,543,
350,539,
316,533,
336,529,
358,523,
374,518,
343,513,
302,510,
317,506,
342,504,
359,501,
334,496,
291,493,
300,491,
326,489,
346,488,
327,487,
286,484,
294,483,
323,481,
343,480,
329,479,
285,479,
286,480,
313,477,
336,480,
329,482,
282,482,
280,483,
307,484,
330,485,
332,486,
285,482,
277,479,
302,478,
330,479,
332,477,
291,476,
272,473,
302,475,
325,472,
334,472,
297,471,
272,469,
294,469,
324,466,
334,466,
296,465,
271,465,
294,464,
321,461,
337,458,
302,455,
270,453,
289,452,
321,450,
337,449,
306,449,
272,449,
292,446,
318,446,
341,444,
315,443,
278,442,
292,441,
317,442,
337,439,
320,437,
278,434,
287,433,
315,429,
334,427,
322,424,
276,423,
281,424,
306,424,
329,423,
321,421,
274,423,
273,426,
295,428,
321,428,
317,430,
272,431,
263,433,
293,434,
316,436,
320,437,
278,438,
263,435,
291,436,
317,435,
325,437,
282,436,
261,433,
292,433,
318,434,
329,434,
293,434,
267,436,
290,435,
318,438,
335,442,
298,447,
270,454,
293,462,
323,474,
343,484,
318,497,
283,513,
307,528,
336,544,
360,560,
338,577,
305,594,
328,613,
360,630,
384,645,
372,661,
334,675,
352,689,
379,702,
409,711,
400,721,
357,728,
368,734,
400,738,
425,743,
423,746,
375,748,
381,751,
409,750,
433,750,
433,750,
385,747,
379,745,
407,742,
431,739,
434,734,
390,730,
374,725,
403,722,
425,717,
433,711,
389,706,
367,696,
393,692,
417,684,
429,680,
385,671,
358,665,
380,658,
404,653,
418,646,
382,639,
348,632,
369,625,
392,617,
408,609,
371,602,
335,597,
348,587,
377,582,
392,579,
364,576,
323,573,
336,574,
362,572,
379,570,
356,569,
311,565,
320,562,
345,558,
364,552,
346,546,
300,543,
301,537,
330,532,
349,524,
339,516,
291,507,
291,503,
319,500,
343,496,
337,493,
291,489,
284,487,
310,486,
336,484,
339,484,
292,484,
280,484,
308,485,
334,486,
341,486,
300,486,
277,483,
306,484,
333,483,
347,482,
303,480,
280,482,
306,479,
332,481,
344,481,
309,480,
279,478,
300,480,
323,480,
343,477,
311,475,
276,474,
296,473,
323,473,
342,471,
314,468,
274,465,
289,465,
317,463,
337,462,
314,458,
269,456,
281,454,
309,453,
332,449,
316,449,
270,448,
280,446,
305,446,
326,443,
315,440,
271,438,
273,439,
302,436,
324,436,
321,435,
273,433,
269,434,
295,435,
321,434,
323,435,
275,434,
263,435,
290,436,
316,436,
321,434,
278,433,
256,429,
287,429,
312,429,
325,430,
282,429,
262,434,
286,436,
312,443,
328,446,
291,451,
264,460,
289,470,
318,483,
339,495,
309,509,
279,529,
304,568,
335,611,
358,651,
332,679,
301,702,
323,723,
357,747,
381,765,
364,778,
328,790,
345,801,
380,809,
405,811,
393,815,
353,814,
365,811,
395,805,
421,798,
415,789,
373,779,
375,770,
404,758,
428,750,
426,734,
383,723,
376,710,
404,699,
427,687,
429,675,
382,662,
367,652,
393,639,
415,631,
422,618,
378,610,
355,601,
382,594,
406,587,
416,582,
372,577,
348,574,
369,568,
394,566,
406,562,
366,558,
334,554,
355,549,
379,544,
392,540,
356,535,
320,532,
338,528,
362,524,
377,520,
346,515,
308,512,
323,509,
348,506,
366,504,
343,500,
299,497,
313,494,
336,491,
354,486,
337,484,
292,480,
296,479,
321,476,
345,476,
334,476,
288,475,
289,475,
319,475,
340,477,
337,475,
291,476,
287,476,
315,475,
339,476,
340,473,
296,474,
284,473,
313,474,
337,473,
343,472,
302,473,
283,473,
310,474,
335,475,
345,474,
305,474,
280,473,
304,474,
327,471,
341,470,
305,466,
273,466,
296,464,
325,461,
339,457,
304,452,
271,448,
290,442,
316,442,
334,439,
306,436,
266,436,
283,436,
310,433,
331,432,
309,432,
266,430,
278,430,
309,431,
325,429,
312,430,
268,429,
276,430,
307,429,
329,430,
320,429,
274,428,
277,429,
306,431,
328,431,
325,432,
281,433,
277,432,
304,433,
329,433,
329,436,
280,442,
274,445,
300,447,
325,447,
330,446,
285,445,
264,442,
290,440,
318,438,
324,435,
282,434,
261,429,
285,428,
312,428,
322,429,
285,429,
258,429,
281,428,
312,431,
327,430,
295,433,
262,437,
284,443,
316,452,
335,461,
306,474,
274,490,
294,506,
327,527,
351,544,
329,565,
297,581,
316,593,
348,605,
375,615,
366,626,
328,634,
342,640,
375,647,
403,652,
395,656,
356,660,
362,663,
397,665,
424,665,
420,665,
377,664,
377,662,
402,662,
432,661,
432,657,
383,654,
379,650,
406,648,
431,644,
432,640,
386,635,
373,630,
399,629,
423,625,
431,620,
386,618,
361,613,
384,610,
406,606,
419,603,
376,597,
346,595,
367,591,
390,586,
404,583,
366,578,
335,575,
351,570,
374,564,
393,563,
360,556,
319,552,
331,546,
357,541,
375,536,
348,528,
303,519,
318,514,
344,506,
362,499,
345,494,
300,488,
308,483,
334,479,
356,474,
342,469,
295,467,
299,466,
325,464,
346,463,
339,462,
289,459,
289,459,
318,460,
340,460,
337,462,
290,463,
283,464,
312,465,
336,468,
338,471,
295,473,
279,471,
307,472,
332,474,
340,473,
296,474,
273,474,
300,474,
327,474,
340,472,
303,471,
273,469,
299,466,
323,464,
340,461,
305,460,
271,457,
288,453,
318,451,
335,448,
304,446,
266,443,
287,438,
311,437,
331,436,
306,432,
265,430,
279,428,
307,427,
327,426,
309,424,
267,422,
277,420,
305,419,
329,418,
314,416,
269,415,
274,414,
305,415,
327,414,
321,413,
276,411,
277,409,
305,411,
330,411,
327,411,
285,410,
278,410,
307,412,
331,412,
332,411,
290,411,
271,410,
299,410,
325,409,
331,408,
288,407,
264,404,
291,407,
318,407,
329,405,
288,405,
263,406,
286,406,
312,405,
327,406,
291,404,
259,404,
282,404,
309,403,
327,402,
297,401,
261,402,
279,400,
306,401,
327,402,
303,403,
261,407,
277,410,
304,416,
327,422,
310,431,
268,441,
280,474,
311,520,
333,566,
324,615,
279,660,
291,703,
321,743,
348,893,
345,993,
305,991,
311,992,
342,991,
372,992,
377,993,
335,992,
336,993,
368,992,
398,991,
404,992,
366,992,
355,992,
387,992,
417,991,
427,993,
389,990,
370,889,
400,815,
424,742,
437,674,
399,608,
371,554,
395,502,
421,455,
434,413,
395,375,
364,345,
385,321,
409,296,
426,281,
391,267,
353,261,
370,254,
395,252,
413,252,
384,255,
343,259,
357,270,
382,278,
399,290,
375,302,
332,312,
341,329,
365,344,
386,358,
369,372,
319,385,
326,399,
351,410,
368,424,
358,436,
307,446,
306,456,
331,468,
353,475,
349,483,
301,488,
291,494,
319,499,
341,503,
340,508,
295,512,
281,514,
308,518,
332,519,
339,519,
297,520,
274,519,
302,520,
329,520,
341,518,
301,516,
278,515,
301,514,
328,511,
343,511,
309,506,
276,504,
300,501,
328,497,
347,495,
314,492,
282,489,
299,486,
328,483,
349,484,
318,481,
276,478,
294,475,
320,473,
339,471,
319,470,
276,468,
290,466,
317,461,
338,458,
321,456,
276,453,
284,452,
312,450,
335,447,
327,443,
280,441,
284,438,
308,437,
333,434,
329,434,
283,431,
273,429,
303,429,
326,428,
328,427,
287,424,
275,424,
300,424,
330,422,
337,421,
296,418,
272,416,
302,416,
327,416,
337,416,
298,418,
273,416,
298,417,
320,414,
336,413,
297,412,
268,411,
288,413,
315,412,
331,413,
300,412,
263,412,
280,411,
311,410,
330,411,
303,408,
265,408,
282,409,
309,406,
333,407,
309,405,
267,404,
280,405,
303,406,
328,404,
314,407,
268,407,
277,410,
303,417,
328,420,
323,426,
280,433,
283,442,
313,453,
339,465,
342,479,
301,490,
295,504,
328,521,
356,537,
364,554,
325,566,
319,582,
351,598,
379,611,
392,623,
355,634,
337,644,
371,655,
403,665,
413,671,
377,674,
356,679,
382,681,
411,688,
426,697,
389,702,
357,703,
381,703,
409,700,
425,695,
395,689,
361,682,
375,676,
405,669,
423,659,
397,651,
356,641,
368,633,
392,626,
412,618,
393,609,
350,601,
351,595,
373,589,
394,580,
385,573,
347,567,
345,560,
368,556,
390,551,
384,544,
343,539,
338,537,
356,532,
377,527,
374,521,
335,517,
322,513,
342,510,
363,508,
365,506,
325,501,
308,497,
331,496,
351,493,
355,489,
318,485,
294,479,
315,477,
340,473,
350,471,
314,464,
288,462,
302,461,
322,459,
337,459,
317,458,
292,456,
295,457,
310,455,
317,457,
306,454,
295,453,
300,454,
311,458,
317,458,
305,458,
291,458,
300,461,
311,462,
318,463,
306,464,
294,464,
300,464,
315,464,
323,463,
315,461,
298,459,
300,458,
318,457,
336,460,
332,457,
300,455,
296,457,
320,457,
340,458,
337,455,
297,453,
293,452,
317,451,
340,450,
337,445,
291,442,
278,441,
308,441,
332,441,
333,436,
289,432,
272,430,
300,429,
325,428,
332,425,
289,426,
270,425,
292,424,
321,422,
335,420,
292,419,
265,419,
289,417,
317,420,
332,419,
299,420,
265,420,
286,421,
316,421,
334,422,
305,421,
270,421,
286,419,
314,421,
333,420,
311,421,
270,420,
283,418,
310,417,
328,416,
315,416,
273,413,
281,413,
308,412,
330,411,
315,408,
272,409,
274,407,
303,409,
325,409,
321,410,
277,419,
277,430,
303,443,
329,458,
330,472,
287,485,
282,499,
311,511,
338,524,
345,536,
306,547,
294,559,
327,572,
355,586,
367,597,
331,608,
318,618,
346,629,
379,638,
395,648,
361,659,
339,668,
368,671,
397,676,
415,677,
384,679,
356,677,
379,676,
413,675,
431,676,
401,672,
365,671,
389,670,
417,668,
436,666,
411,663,
370,661,
387,655,
415,657,
434,657,
416,658,
371,659,
383,656,
405,655,
431,651,
414,647,
365,641,
371,636,
396,632,
414,627,
404,622,
352,618,
352,617,
378,617,
400,612,
396,607,
344,600,
335,596,
363,587,
384,580,
384,574,
336,564,
318,555,
347,547,
370,542,
375,532,
330,527,
310,519,
335,519,
359,520,
371,517,
329,515,
301,511,
327,506,
353,504,
361,502,
324,497,
290,493,
314,490,
340,487,
356,484,
322,480,
286,482,
307,485,
336,491,
352,492,
325,493,
284,492,
302,493,
330,491,
350,490,
330,488,
287,486,
298,487,
328,492,
352,492,
334,490,
286,485,
296,475,
322,465,
348,459,
335,448,
290,440,
294,431,
321,425,
342,419,
340,413,
291,410,
285,407,
316,402,
340,402,
343,401,
297,401,
281,400,
310,401,
337,402,
344,403,
300,404,
281,403,
309,403,
332,406,
346,407,
301,410,
277,411,
303,413,
329,413,
340,413,
303,416,
267,417,
293,424,
321,426,
336,428,
301,428,
264,430,
281,429,
313,426,
334,430,
303,432,
261,441,
279,452,
308,458,
326,459,
307,455,
265,453,
275,451,
307,448,
328,445,
314,440,
266,435,
277,429,
303,425,
329,417,
320,411,
273,407,
274,404,
305,402,
328,397,
326,391,
277,387,
270,385,
298,385,
325,382,
329,382,
280,383,
265,385,
297,389,
321,394,
328,399,
287,405,
266,408,
295,419,
327,430,
339,440,
302,452,
280,467,
310,483,
343,497,
362,512,
326,526,
300,540,
329,555,
362,570,
385,584,
356,596,
325,609,
350,619,
383,632,
407,640,
383,648,
346,653,
371,660,
405,666,
427,667,
408,669,
369,670,
382,668,
415,668,
439,666,
422,664,
376,661,
390,657,
419,655,
442,651,
430,645,
382,643,
387,639,
413,636,
437,630,
430,628,
377,619,
374,615,
399,611,
425,606,
419,599,
374,593,
360,585,
388,580,
408,573,
414,566,
367,562,
343,555,
372,552,
394,546,
399,539,
356,531,
329,525,
349,516,
377,507,
388,499,
349,492,
314,484,
337,479,
359,474,
377,470,
336,466,
302,462,
321,458,
349,457,
363,454,
330,453,
290,453,
306,451,
335,451,
352,453,
327,453,
285,452,
296,451,
325,452,
345,452,
329,454,
281,453,
289,454,
315,455,
339,457,
326,459,
280,459,
283,463,
312,462,
335,467,
333,465,
287,468,
282,466,
312,465,
337,467,
339,468,
292,468,
280,470,
311,470,
337,469,
342,468,
299,467,
278,463,
309,463,
332,461,
344,457,
298,453,
277,453,
303,449,
327,446,
340,444,
299,442,
270,441,
295,441,
321,439,
336,439,
303,437,
270,437,
287,435,
318,433,
335,434,
306,432,
266,430,
285,430,
314,430,
334,426,
312,427,
267,423,
283,422,
312,418,
332,417,
314,416,
269,412,
276,410,
307,410,
330,408,
319,408,
271,407,
274,407,
299,408,
328,407,
322,407,
274,406,
268,406,
299,406,
319,405,
321,406,
274,405,
262,404,
294,404,
321,404,
325,402,
279,402,
260,399,
290,403,
317,404,
325,404,
283,403,
258,407,
286,406,
314,412,
329,414,
290,419,
261,423,
291,430,
320,437,
338,444,
306,454,
275,463,
298,472,
330,483,
355,500,
328,515,
295,529,
319,547,
354,564,
376,577,
360,593,
322,607,
341,621,
374,632,
400,642,
386,654,
345,660,
357,666,
392,670,
416,677,
408,678,
362,674,
370,675,
399,675,
425,674,
416,672,
373,668,
368,666,
396,661,
422,658,
422,650,
374,642,
365,638,
391,633,
416,628,
416,620,
374,615,
352,607,
381,604,
403,599,
414,590,
365,583,
343,579,
367,574,
396,568,
403,563,
361,559,
328,555,
351,548,
374,543,
391,537,
351,532,
314,526,
334,522,
361,518,
375,514,
343,509,
301,505,
319,501,
343,495,
362,493,
334,486,
291,483,
305,479,
333,475,
350,471,
330,469,
282,465,
292,463,
318,461,
339,460,
328,459,
279,457,
287,456,
311,454,
334,455,
330,454,
282,452,
280,452,
308,450,
331,449,
331,446,
285,447,
274,446,
306,446,
331,447,
335,446,
294,451,
272,448,
303,451,
330,452,
337,453,
295,454,
271,453,
298,452,
324,454,
337,453,
300,454,
273,452,
295,452,
326,450,
340,451,
305,451,
271,450,
293,448,
321,451,
338,449,
310,450,
269,449,
291,448,
317,448,
336,448,
312,448,
269,448,
285,449,
312,449,
337,445,
319,443,
277,441,
285,439,
309,440,
335,439,
323,439,
277,438,
280,438,
309,436,
332,435,
326,435,
278,433,
278,430,
307,430,
329,427,
327,425,
283,426,
273,424,
304,425,
329,423,
331,423,
287,421,
267,419,
299,421,
326,422,
333,419,
289,418,
268,419,
296,418,
321,417,
332,415,
290,414,
263,410,
288,410,
318,408,
334,408,
298,407,
267,406,
285,404,
314,408,
331,407,
303,407,
261,409,
288,413,
313,415,
334,420,
310,426,
271,432,
287,441,
321,449,
341,458,
326,469,
284,481,
297,495,
332,509,
361,522,
348,536,
306,547,
317,562,
352,576,
378,589,
377,598,
335,608,
336,618,
368,628,
399,635,
402,640,
359,646,
353,649,
385,652,
412,655,
419,652,
377,651,
360,649,
392,649,
419,646,
430,644,
388,641,
366,640,
392,634,
419,631,
435,629,
390,623,
361,616,
385,612,
409,607,
423,602,
386,598,
352,593,
369,591,
396,587,
413,584,
380,578,
340,575,
356,568,
383,565,
399,558,
373,553,
329,548,
342,544,
367,540,
385,534,
366,529,
315,525,
321,521,
348,518,
369,514,
355,509,
303,504,
309,502,
336,498,
360,495,
348,490,
300,489,
297,486,
325,484,
346,482,
343,483,
293,481,
284,481,
312,479,
336,482,
337,483,
291,484,
271,481,
299,483,
323,484,
334,484,
293,481,
271,487,
295,487,
322,487,
336,486,
293,487,
265,487,
291,487,
322,486,
337,485,
300,483,
271,482,
295,481,
318,481,
341,480,
311,479,
276,480,
295,475,
325,476,
344,475,
317,473,
276,471,
293,471,
322,472,
341,466,
323,467,
279,465,
289,462,
317,462,
340,458,
328,456,
281,453,
285,451,
314,451,
337,449,
328,447,
283,445,
281,443,
313,440,
338,439,
335,438,
288,436,
279,437,
310,436,
334,435,
337,436,
290,433,
273,432,
305,432,
328,432,
334,429,
292,428,
271,429,
295,426,
323,429,
336,427,
294,425,
270,424,
296,424,
320,422,
337,423,
301,422,
267,422,
292,424,
320,426,
339,426,
305,429,
266,431,
286,436,
315,442,
337,449,
314,456,
271,464,
292,476,
321,487,
344,498,
333,510,
291,524,
305,538,
341,555,
365,568,
354,582,
313,596,
324,610,
359,624,
386,636,
386,647,
341,656,
345,663,
376,672,
405,678,
407,684,
359,685,
354,689,
384,690,
411,692,
414,690,
372,689,
355,687,
387,687,
414,684,
423,680,
378,678,
357,675,
383,673,
409,670,
419,666,
377,660,
346,655,
372,647,
400,640,
413,631,
375,624,
340,614,
359,606,
385,601,
408,596,
370,590,
329,586,
347,584,
374,576,
390,572,
362,566,
317,562,
329,556,
355,550,
373,541,
354,535,
306,527,
313,520,
340,514,
361,507,
346,502,
296,496,
301,493,
329,492,
351,488,
344,487,
291,486,
292,485,
319,486,
343,484,
342,484,
294,481,
285,480,
316,478,
341,480,
345,478,
300,479,
282,478,
313,482,
340,483,
344,484,
302,485,
282,487,
309,489,
336,490,
349,491,
310,491,
280,490,
306,487,
331,487,
350,486,
315,484,
278,484,
302,483,
330,482,
347,480,
315,476,
275,477,
294,474,
322,473,
343,469,
317,468,
272,463,
289,463,
318,458,
336,456,
320,453,
275,451,
283,449,
312,448,
332,446,
320,444,
271,441,
277,439,
308,438,
334,437,
321,436,
276,436,
275,433,
302,434,
328,433,
326,433,
278,430,
274,431,
300,432,
324,433,
328,429,
284,431,
267,428,
300,427,
326,428,
331,428,
289,428,
270,427,
299,429,
326,428,
340,428,
298,426,
273,427,
293,426,
326,427,
338,428,
302,426,
267,428,
290,428,
320,433,
338,436,
307,439,
269,445,
289,448,
322,460,
342,468,
320,480,
281,489,
299,501,
328,515,
354,524,
339,541,
299,554,
314,572,
348,590,
376,605,
366,622,
322,637,
334,654,
369,664,
396,677,
393,688,
348,698,
349,706,
383,712,
408,718,
411,724,
365,727,
358,728,
389,732,
418,733,
418,732,
376,730,
362,727,
388,722,
421,719,
430,714,
386,710,
364,704,
387,699,
415,692,
427,687,
385,681,
355,675,
380,672,
409,663,
423,656,
384,647,
350,642,
371,635,
397,630,
415,622,
377,614,
337,608,
354,603,
381,600,
397,595,
368,589,
323,583,
338,578,
363,571,
381,566,
357,561,
311,555,
321,549,
349,544,
367,540,
349,532,
296,527,
299,521,
329,516,
350,512,
340,506,
289,501,
287,498,
317,494,
341,492,
340,488,
287,484,
281,482,
308,481,
337,479,
339,476,
294,475,
276,473,
308,474,
332,475,
339,476,
298,472,
279,473,
306,476,
331,478,
345,479,
306,478,
277,479,
302,481,
332,482,
349,482,
309,481,
280,481,
302,479,
333,481,
350,482,
315,479,
278,480,
300,478,
327,478,
346,476,
321,475,
280,475,
294,472,
322,472,
342,469,
320,469,
276,466,
289,465,
314,464,
338,462,
321,461,
273,459,
279,457,
309,454,
332,455,
321,452,
272,450,
269,448,
300,448,
324,447,
320,446,
274,444,
267,441,
296,441,
321,441,
323,438,
278,437,
261,435,
291,437,
318,437,
326,437,
282,439,
262,437,
286,442,
318,443,
327,442,
288,441,
260,440,
288,442,
316,442,
333,442,
297,443,
262,443,
287,442,
316,444,
335,442,
304,441,
265,444,
287,446,
318,449,
339,451,
316,456,
272,460,
292,468,
323,476,
343,483,
326,492,
283,501,
296,513,
329,525,
355,539,
344,554,
300,568,
309,583,
341,598,
370,614,
368,628,
325,644,
327,656,
364,670,
391,680,
394,691,
350,699,
347,709,
380,714,
410,718,
418,721,
374,723,
359,724,
394,725,
422,725,
430,722,
387,715,
368,714,
396,713,
423,706,
432,702,
395,695,
361,691,
387,684,
413,679,
428,674,
389,665,
353,661,
376,654,
403,650,
419,643,
385,640,
346,634,
363,629,
394,625,
411,617,
382,612,
337,606,
351,601,
379,598,
396,592,
374,585,
323,579,
335,573,
362,569,
382,561,
365,554,
317,548,
320,540,
347,536,
368,532,
357,525,
307,521,
304,516,
328,510,
355,505,
349,501,
300,497,
289,493,
318,490,
346,488,
344,486,
299,484,
283,482,
309,482,
337,483,
346,482,
301,483,
278,480,
306,483,
331,481,
341,484,
299,483,
270,485,
295,485,
328,486,
344,487,
307,489,
271,488,
295,489,
328,488,
347,489,
313,487,
275,489,
293,489,
324,491,
343,489,
317,490,
275,489,
291,489,
321,487,
339,486,
318,484,
276,480,
288,482,
320,481,
342,478,
328,475,
278,473,
288,470,
315,470,
342,468,
330,464,
284,463,
284,462,
314,462,
337,465,
333,483,
283,504,
277,526,
305,545,
336,560,
336,573,
289,581,
271,588,
300,596,
331,596,
340,594,
294,596,
272,590,
302,589,
327,580,
339,572,
297,566,
269,559,
297,553,
324,539,
338,526,
300,508,
265,493,
292,482,
315,473,
337,469,
303,458,
265,447,
286,437,
317,430,
338,426,
314,426,
270,428,
291,431,
323,438,
344,446,
329,457,
284,468,
299,484,
332,499,
361,518,
351,536,
306,550,
318,561,
353,574,
382,585,
375,599,
331,611,
335,623,
370,632,
401,649,
401,664,
360,672,
354,685,
384,695,
415,706,
425,712,
380,714,
365,714,
397,715,
424,714,
436,713,
389,714,
369,713,
392,713,
422,710,
433,705,
388,699,
359,697,
386,692,
411,685,
428,677,
384,667,
353,659,
373,651,
402,645,
418,634,
384,627,
343,623,
363,620,
387,619,
408,618,
377,619,
333,615,
349,610,
375,600,
393,591,
371,587,
324,581,
332,576,
362,569,
380,561,
364,549,
312,537,
315,524,
340,515,
364,505,
355,495,
303,491,
304,485,
327,484,
350,486,
349,486,
298,480,
290,477,
319,473,
344,474,
348,473,
298,472,
283,474,
317,479,
339,485,
348,487,
302,486,
282,486,
310,487,
338,487,
350,495,
309,498,
281,510,
304,519,
335,527,
349,529,
313,532,
281,536,
300,540,
329,544,
351,548,
319,549,
279,547,
299,546,
330,543,
349,535,
321,525,
277,512,
292,499,
322,487,
340,476,
321,465,
276,456,
288,450,
318,443,
339,440,
321,437,
276,430,
282,425,
312,421,
337,416,
330,411,
281,406,
281,404,
312,403,
336,402,
335,402,
284,402,
275,403,
301,404,
332,404,
335,405,
287,405,
271,406,
302,410,
331,417,
338,421,
293,426,
271,427,
298,435,
329,439,
338,441,
295,441,
267,440,
297,441,
323,439,
338,437,
302,433,
265,428,
290,425,
319,422,
338,421,
305,416,
266,419,
286,420,
319,422,
337,419,
310,418,
267,414,
284,409,
314,408,
334,405,
314,405,
270,404,
281,407,
314,413,
338,422,
327,433,
279,442,
286,457,
320,470,
345,484,
339,498,
294,517,
300,533,
328,550,
361,571,
363,590,
320,606,
317,626,
354,646,
384,662,
391,674,
349,686,
338,696,
373,706,
405,714,
418,722,
381,729,
361,733,
392,739,
422,741,
439,745,
397,743,
372,744,
404,745,
432,744,
449,742,
411,738,
380,733,
400,734,
428,733,
450,732,
418,728,
378,730,
399,729,
426,728,
445,725,
415,718,
371,713,
386,703,
416,699,
431,697,
410,689,
362,676,
370,660,
397,645,
418,633,
400,617,
347,602,
351,586,
381,576,
403,564,
390,552,
338,541,
335,534,
362,527,
382,520,
377,515,
325,511,
318,507,
341,504,
362,498,
360,491,
311,484,
295,478,
324,475,
349,473,
355,470,
309,470,
285,471,
312,474,
338,474,
349,472,
306,472,
278,472,
307,470,
334,474,
347,478,
312,477,
282,476,
304,471,
335,464,
352,458,
320,452,
281,444,
301,438,
335,432,
352,427,
324,419,
282,415,
300,413,
330,409,
348,404,
328,402,
282,400,
291,398,
322,402,
345,402,
327,404,
283,408,
290,411,
318,416,
343,414,
335,414,
284,412,
286,412,
314,412,
337,408,
338,407,
290,400,
279,397,
303,395,
330,391,
339,391,
314,388,
297,388,
311,388,
322,390,
326,390,
310,389,
304,389,
314,393,
326,394,
330,395,
311,394,
300,398,
312,403,
320,407,
325,409,
305,409,
294,411,
304,414,
312,414,
319,415,
301,412,
286,410,
295,410,
306,411,
312,408,
296,404,
277,398,
283,396,
297,395,
310,394,
301,391,
266,387,
271,386,
295,388,
317,385,
304,384,
256,382,
263,384,
291,386,
314,385,
308,388,
261,391,
261,393,
289,400,
315,406,
315,412,
270,421,
264,430,
297,440,
323,452,
329,462,
287,475,
275,487,
309,501,
339,517,
355,534,
313,551,
301,562,
334,579,
370,596,
387,612,
352,625,
329,639,
364,652,
398,667,
417,674,
380,682,
356,688,
381,694,
416,697,
439,703,
408,704,
376,707,
395,710,
429,709,
448,709,
419,707,
381,705,
398,702,
428,699,
446,693,
429,684,
380,678,
393,672,
418,666,
442,660,
425,653,
380,646,
383,640,
409,635,
434,627,
424,620,
375,615,
371,609,
399,605,
423,600,
416,597,
368,592,
356,590,
382,585,
405,580,
404,577,
358,570,
338,564,
367,561,
390,554,
390,547,
342,538,
322,530,
347,526,
368,521,
380,514,
334,506,
305,503,
329,498,
356,495,
370,493,
328,488,
294,486,
316,484,
341,482,
357,482,
323,481,
283,479,
303,479,
332,479,
351,478,
320,478,
278,477,
296,480,
323,478,
342,479,
326,483,
281,484,
292,485,
323,488,
344,490,
333,493,
287,495,
293,499,
322,507,
346,518,
337,524,
290,530,
288,533,
318,538,
343,539,
342,541,
293,543,
285,547,
314,549,
341,548,
343,542,
295,539,
277,535,
308,529,
335,528,
340,527,
296,519,
273,502,
302,488,
327,469,
338,451,
298,433,
270,417,
297,405,
321,392,
338,379,
301,367,
265,356,
291,350,
316,340,
333,337,
300,332,
263,327,
285,327,
315,328,
335,329,
308,330,
266,332,
281,330,
314,337,
332,339,
314,343,
268,347,
282,353,
307,360,
332,364,
319,366,
270,367,
276,370,
305,374,
328,376,
322,379,
273,383,
271,386,
302,392,
328,396,
325,399,
276,402,
270,406,
302,411,
329,415,
330,421,
284,426,
270,433,
302,444,
333,450,
343,459,
297,468,
284,478,
318,491,
349,505,
363,519,
324,533,
302,550,
332,566,
363,581,
384,596,
349,610,
323,623,
352,635,
386,649,
409,661,
380,670,
346,682,
372,690,
407,700,
431,704,
406,708,
368,708,
388,706,
419,700,
439,696,
423,692,
378,688,
392,686,
423,678,
444,674,
426,669,
381,662,
387,659,
416,653,
441,651,
432,645,
385,642,
381,633,
411,629,
432,624,
427,617,
377,611,
366,603,
394,597,
416,594,
418,587,
371,582,
351,576,
378,572,
401,568,
410,561,
361,556,
338,548,
364,544,
389,540,
398,531,
355,522,
323,517,
346,509,
370,502,
383,493,
345,486,
309,480,
327,473,
351,465,
369,461,
335,458,
294,455,
314,452,
340,452,
356,449,
329,448,
282,447,
299,448,
325,449,
344,448,
326,450,
281,449,
292,450,
323,450,
344,451,
330,451,
283,449,
289,449,
321,449,
343,448,
332,449,
287,444,
288,446,
318,445,
343,445,
340,441,
294,441,
285,440,
314,441,
341,439,
344,441,
297,439,
279,437,
310,439,
337,438,
344,437,
296,437,
275,435,
301,439,
328,441,
340,443,
296,441,
268,440,
295,440,
320,442,
336,442,
296,440,
263,440,
286,442,
314,439,
331,437,
301,437,
260,435,
282,434,
310,431,
334,429,
309,427,
268,426,
282,425,
317,425,
334,423,
318,423,
271,421,
282,418,
313,421,
337,419,
324,418,
274,416,
282,414,
311,415,
337,415,
329,415,
281,412,
278,411,
305,412,
334,413,
332,412,
282,412,
273,414,
303,415,
326,416,
332,416,
284,416,
268,415,
293,415,
323,415,
330,413,
285,417,
262,414,
290,414,
317,417,
330,416,
289,414,
259,414,
285,412,
315,416,
329,419,
294,423,
262,428,
287,432,
316,438,
339,450,
308,461,
273,473,
298,487,
331,501,
358,515,
333,529,
295,543,
316,557,
351,573,
376,587,
363,600,
326,614,
341,624,
375,638,
405,647,
396,655,
354,662,
361,669,
397,675,
426,679,
419,680,
376,683,
377,681,
408,683,
439,683,
439,681,
390,680,
383,678,
414,680,
440,676,
444,671,
397,670,
379,664,
411,662,
436,656,
443,652,
396,645,
377,641,
404,638,
428,635,
441,628,
397,623,
367,618,
394,614,
420,608,
433,602,
395,597,
357,596,
377,595,
404,595,
422,590,
383,587,
340,582,
358,578,
384,573,
401,568,
372,568,
325,569,
337,566,
365,562,
380,555,
360,548,
312,539,
319,531,
346,525,
365,515,
348,504,
299,498,
302,492,
329,486,
353,478,
341,470,
292,459,
288,450,
318,443,
339,435,
337,430,
288,424,
281,418,
306,417,
334,412,
335,409,
294,408,
275,407,
308,409,
336,409,
344,408,
298,407,
280,411,
308,415,
338,419,
348,424,
306,429,
276,435,
307,439,
333,442,
346,444,
311,448,
277,449,
301,446,
330,449,
347,452,
311,452,
274,455,
294,460,
323,464,
343,466,
316,469,
273,468,
291,471,
319,474,
339,470,
322,468,
275,465,
287,464,
316,461,
338,458,
323,455,
272,451,
278,449,
308,447,
337,445,
328,442,
279,438,
276,437,
308,438,
334,435,
331,435,
280,430,
272,431,
301,432,
325,432,
330,429,
283,426,
265,424,
296,422,
324,420,
332,419,
287,417,
264,417,
294,417,
322,419,
334,419,
294,420,
264,422,
292,425,
320,426,
335,427,
297,430,
265,432,
286,434,
314,435,
336,436,
302,439,
264,444,
284,447,
314,453,
338,460,
314,468,
273,476,
293,486,
326,496,
351,504,
338,518,
298,528,
318,541,
352,552,
382,567,
375,576,
335,586,
345,594,
382,601,
410,610,
408,614,
363,619,
371,625,
400,631,
428,635,
432,642,
384,645,
381,647,
414,650,
443,647,
447,647,
405,644,
389,640,
417,638,
446,634,
455,632,
413,629,
386,627,
413,623,
440,621,
451,618,
409,613,
378,613,
400,610,
426,609,
439,603,
400,597,
364,591,
379,586,
411,578,
426,574,
390,565,
349,559,
369,557,
390,549,
413,546,
382,539,
337,536,
350,528,
377,522,
394,517,
372,510,
323,505,
327,497,
355,491,
375,487,
355,483,
309,478,
312,475,
341,472,
361,471,
353,469,
300,465,
295,463,
322,462,
347,460,
346,458,
292,456,
285,457,
313,457,
344,458,
343,459,
299,459,
278,461,
311,462,
337,463,
348,463,
303,462,
282,465,
310,468,
339,469,
348,470,
303,471,
277,471,
306,474,
333,474,
348,475,
308,474,
277,472,
301,473,
330,476,
346,480,
317,482,
275,481,
294,482,
327,484,
346,482,
322,480,
277,478,
293,477,
322,478,
342,475,
324,477,
278,475,
289,476,
317,477,
339,480,
325,482,
276,483,
283,487,
311,488,
337,486,
330,481,
281,473,
275,464,
305,457,
329,451,
327,445,
279,438,
268,431,
298,427,
324,423,
328,419,
280,415,
260,410,
291,408,
317,407,
326,406,
281,406,
258,411,
281,417,
312,425,
324,439,
283,455,
253,473,
281,489,
309,498,
325,501,
289,500,
253,497,
277,491,
305,483,
329,475,
295,466,
254,457,
273,449,
304,441,
326,434,
298,430,
254,424,
273,422,
302,419,
325,417,
307,418,
260,421,
276,424,
303,427,
330,433,
319,441,
272,445,
280,449,
314,457,
340,460,
336,463,
293,469,
295,475,
327,483,
357,493,
362,503,
320,513,
317,523,
349,535,
385,549,
394,559,
356,569,
344,578,
380,589,
414,598,
428,606,
390,613,
369,620,
398,626,
432,632,
448,634,
414,638,
383,641,
413,644,
444,645,
459,647,
421,647,
390,653,
413,654,
443,656,
462,656,
430,655,
390,654,
410,655,
439,651,
457,651,
431,650,
387,648,
403,645,
429,644,
449,639,
428,640,
379,639,
387,638,
415,639,
436,637,
419,637,
367,638,
370,643,
397,644,
419,654,
410,663,
358,672,
351,686,
380,696,
398,698,
394,696,
343,696,
332,698,
356,699,
377,688,
376,672,
328,652,
305,630,
331,612,
359,597,
367,584,
316,579,
296,573,
318,569,
342,563,
354,558,
310,549,
280,541,
306,531,
333,522,
351,512,
309,502,
276,493,
298,485,
328,480,
348,477,
316,470,
275,463,
296,466,
326,467,
346,469,
318,469,
278,474,
293,479,
327,485,
346,482,
328,480,
283,474,
293,467,
322,463,
344,455,
335,449,
285,442,
287,436,
319,433,
341,431,
333,431,
284,434,
282,430,
309,424,
338,417,
335,410,
287,402,
280,396,
307,384,
335,375,
337,366,
292,358,
270,350,
301,347,
331,343,
340,339,
294,335,
268,338,
293,341,
324,342,
334,347,
293,351,
264,356,
288,361,
318,368,
334,377,
297,381,
262,383,
285,381,
313,377,
333,376,
300,369,
258,366,
277,361,
306,361,
326,358,
301,354,
256,353,
270,352,
300,351,
323,349,
305,349,
255,350,
268,350,
295,352,
319,352,
306,353,
258,354,
266,357,
294,359,
318,361,
309,362,
261,364,
261,367,
292,371,
315,374,
315,377,
269,380,
259,385,
290,388,
316,392,
321,398,
278,403,
257,410,
291,422,
320,429,
335,443,
295,454,
273,468,
306,482,
340,493,
359,507,
322,522,
296,538,
331,550,
364,565,
387,580,
360,593,
329,603,
361,615,
390,626,
422,635,
394,643,
357,651,
380,656,
419,662,
443,667,
423,668,
382,670,
401,671,
433,673,
457,670,
441,670,
396,667,
407,663,
436,661,
459,657,
447,654,
399,649,
398,644,
426,638,
454,633,
442,627,
392,623,
386,618,
416,612,
437,608,
435,603,
384,597,
372,594,
397,591,
418,585,
420,581,
372,578,
346,572,
372,570,
398,565,
401,562,
354,557,
326,552,
348,545,
377,542,
388,536,
347,531,
310,527,
334,518,
359,518,
373,511,
336,506,
296,502,
319,499,
346,494,
361,491,
331,488,
288,484,
306,484,
335,481,
355,482,
326,480,
286,479,
299,479,
326,479,
348,476,
329,477,
282,474,
291,475,
320,477,
342,477,
329,477,
281,475,
285,477,
313,478,
341,479,
337,479,
284,477,
283,479,
310,478,
335,477,
338,479,
290,477,
278,475,
308,477,
332,476,
336,474,
291,475,
271,473,
302,476,
328,475,
338,475,
293,471,
271,472,
298,470,
328,470,
340,468,
302,466,
268,464,
295,464,
322,463,
340,464,
307,462,
269,460,
292,458,
320,459,
338,457,
309,456,
269,455,
287,453,
315,453,
335,449,
312,448,
269,446,
280,444,
310,441,
331,438,
312,436,
263,435,
274,434,
303,437,
328,438,
314,435,
260,432,
266,432,
296,430,
320,431,
315,428,
267,426,
263,425,
293,423,
320,422,
320,421,
274,419,
262,420,
288,419,
319,419,
322,415,
280,418,
258,416,
290,420,
320,425,
328,429,
289,432,
267,440,
297,445,
326,454,
342,465,
306,475,
276,486,
309,500,
342,515,
363,528,
333,543,
306,559,
330,573,
368,587,
392,599,
370,610,
334,624,
358,634,
395,648,
421,658,
402,667,
363,678,
382,687,
417,696,
441,701,
428,706,
386,712,
396,713,
429,715,
456,712,
443,711,
399,707,
402,704,
432,703,
459,698,
451,693,
401,687,
394,682,
423,676,
446,671,
443,665,
398,657,
382,650,
411,645,
437,641,
439,635,
389,629,
365,622,
387,619,
415,613,
423,606,
373,600,
348,593,
371,587,
396,580,
408,571,
364,562,
329,558,
353,553,
376,545,
389,539,
349,533,
310,527,
328,520,
350,516,
370,509,
337,504,
293,500,
310,498,
337,495,
352,491,
330,489,
281,484,
296,484,
319,483,
344,479,
321,475,
277,476,
287,477,
312,479,
335,479,
323,478,
275,479,
276,480,
305,481,
330,482,
327,486,
279,488,
274,492,
307,496,
334,500,
334,503,
285,506,
273,508,
305,520,
334,538,
338,548,
295,557,
272,562,
306,568,
332,570,
344,572,
301,576,
275,583,
302,593,
331,596,
344,600,
303,606,
268,605,
296,606,
322,605,
341,596,
305,582,
268,564,
288,544,
316,523,
335,504,
307,486,
267,468,
287,453,
312,437,
334,425,
312,410,
268,400,
279,391,
309,384,
330,376,
311,370,
266,363,
272,358,
302,353,
325,349,
312,346,
267,343,
268,343,
297,342,
323,343,
317,345,
272,346,
265,349,
300,354,
325,358,
325,361,
281,364,
270,369,
300,373,
325,375,
334,377,
287,379,
265,381,
296,387,
324,389,
336,392,
292,391,
267,395,
294,397,
323,402,
336,405,
296,409,
266,413,
292,420,
320,430,
339,438,
305,447,
268,457,
294,469,
325,481,
344,494,
319,507,
279,519,
303,537,
339,554,
365,568,
349,584,
313,600,
327,615,
368,632,
393,644,
384,658,
346,669,
355,682,
394,693,
422,702,
417,707,
372,715,
377,718,
411,723,
440,724,
441,724,
398,724,
394,722,
427,721,
453,719,
453,716,
407,714,
394,710,
425,710,
451,707,
457,703,
409,700,
386,694,
416,693,
443,687,
450,683,
405,678,
379,673,
406,667,
431,662,
445,657,
403,652,
369,645,
391,643,
415,639,
432,632,
397,627,
358,619,
372,615,
397,609,
419,600,
383,594,
340,587,
354,585,
379,578,
393,570,
370,563,
320,557,
329,552,
352,546,
375,536,
357,529,
304,523,
309,514,
337,508,
356,503,
346,499,
291,494,
290,488,
320,486,
343,483,
339,482,
289,480,
284,476,
311,475,
338,477,
338,473,
290,473,
275,474,
307,478,
333,480,
344,482,
297,485,
276,487,
306,490,
336,494,
343,496,
304,496,
278,497,
305,499,
332,499,
345,502,
309,500,
275,499,
300,496,
327,494,
344,494,
307,493,
275,489,
293,489,
322,489,
339,498,
310,508,
264,515,
282,517,
313,519,
332,519,
309,521,
267,529,
280,526,
312,516,
334,502,
319,483,
272,466,
279,449,
311,434,
334,420,
325,407,
280,395,
278,383,
308,376,
334,369,
328,363,
282,357,
273,353,
302,352,
327,350,
327,348,
282,350,
265,352,
296,355,
321,358,
328,358,
284,365,
264,367,
293,371,
320,374,
330,377,
289,381,
261,383,
288,385,
318,392,
330,394,
293,397,
257,399,
284,402,
311,408,
330,410,
298,411,
261,414,
281,416,
308,419,
330,421,
299,424,
259,427,
276,432,
307,438,
325,444,
306,450,
261,456,
275,463,
308,474,
335,484,
326,496,
279,509,
294,521,
330,538,
358,550,
356,567,
313,581,
320,597,
354,610,
386,623,
392,634,
345,645,
347,656,
383,665,
415,674,
421,681,
380,686,
369,691,
406,696,
434,699,
447,703,
407,704,
386,702,
415,703,
445,702,
458,695,
417,693,
389,689,
418,684,
446,683,
457,677,
421,673,
383,669,
410,664,
435,662,
450,658,
418,654,
375,649,
391,643,
418,637,
437,634,
408,631,
359,625,
376,621,
403,616,
419,609,
397,605,
348,598,
359,592,
382,583,
404,578,
385,570,
335,564,
341,559,
365,552,
386,548,
374,542,
320,536,
317,532,
344,527,
362,522,
359,518,
307,512,
295,507,
324,505,
345,503,
347,499,
298,493,
280,491,
310,491,
336,488,
342,485,
297,484,
274,480,
302,481,
331,480,
342,481,
303,478,
276,480,
302,482,
328,482,
345,488,
310,491,
279,494,
301,499,
330,501,
347,502,
315,501,
277,501,
297,499,
327,495,
349,491,
324,488,
281,487,
297,485,
329,483,
347,482,
331,480,
284,477,
296,475,
326,477,
350,472,
338,470,
287,466,
294,465,
323,466,
346,463,
337,462,
290,461,
289,459,
316,461,
339,463,
336,464,
286,462,
275,462,
301,464,
333,463,
331,460,
287,459,
269,457,
300,455,
327,452,
333,449,
285,448,
264,445,
292,444,
319,444,
333,444,
290,442,
260,440,
288,439,
317,440,
330,440,
295,439,
260,438,
281,438,
309,437,
328,437,
289,435,
255,434,
275,434,
303,434,
322,431,
297,429,
254,430,
267,432,
298,434,
317,433,
298,437,
259,439,
270,444,
302,450,
327,453,
314,460,
273,470,
283,479,
321,488,
347,499,
343,511,
304,523,
306,539,
344,557,
375,572,
381,587,
339,601,
336,615,
374,629,
405,641,
416,653,
377,665,
364,671,
402,682,
432,688,
446,696,
405,701,
385,704,
416,708,
443,711,
461,709,
420,708,
390,707,
419,707,
446,705,
460,704,
423,697,
387,695,
410,695,
440,691,
457,687,
423,684,
383,679,
403,674,
426,669,
447,662,
418,656,
371,647,
389,643,
415,636,
431,630,
412,627,
365,621,
373,617,
403,610,
424,607,
406,602,
356,594,
359,591,
386,583,
406,578,
395,573,
346,566,
339,557,
366,550,
386,543,
380,536,
329,527,
315,520,
343,513,
365,511,
367,508,
319,506,
298,501,
326,499,
351,499,
358,498,
312,493,
287,495,
315,494,
341,495,
355,493,
309,492,
282,493,
307,494,
337,497,
351,495,
314,496,
279,499,
303,501,
329,505,
349,509,
313,513,
277,521,
299,525,
328,530,
352,532,
324,532,
284,533,
296,533,
327,536,
347,530,
326,532,
282,530,
292,529,
322,530,
345,528,
328,527,
286,528,
289,528,
317,525,
345,523,
336,514,
288,509,
285,507,
315,504,
340,500,
340,495,
291,493,
278,486,
308,485,
335,482,
335,477,
284,471,
268,467,
298,463,
323,458,
328,452,
285,446,
263,441,
292,436,
320,432,
330,427,
288,422,
259,420,
287,415,
316,411,
329,406,
293,403,
257,400,
279,397,
308,393,
330,393,
297,391,
255,390,
276,390,
306,388,
324,389,
300,389,
255,389,
269,391,
301,394,
323,391,
305,393,
260,394,
269,392,
296,391,
323,393,
308,392,
265,393,
269,392,
301,394,
327,395,
321,399,
273,404,
270,410,
303,417,
331,424,
335,434,
288,448,
285,463,
320,479,
350,498,
359,514,
320,532,
307,551,
346,574,
380,596,
394,613,
354,631,
339,649,
374,663,
406,676,
425,686,
389,694,
366,700,
398,708,
432,716,
450,720,
422,724,
392,727,
419,730,
449,732,
472,730,
440,727,
400,727,
423,726,
451,723,
471,721,
446,718,
405,715,
416,713,
443,713,
467,708,
447,706,
398,701,
406,696,
437,692,
454,688,
440,683,
389,675,
392,669,
418,659,
441,656,
432,647,
381,641,
373,635,
402,628,
424,620,
416,610,
367,599,
359,592,
383,583,
405,572,
405,565,
357,553,
336,544,
365,540,
387,531,
391,526,
346,517,
319,510,
341,502,
365,495,
376,490,
330,481,
296,477,
316,471,
344,465,
357,461,
318,455,
280,455,
303,453,
327,448,
347,449,
311,449,
272,451,
292,453,
324,456,
343,455,
319,454,
277,453,
294,457,
320,460,
344,458,
326,463,
279,464,
288,465,
320,467,
345,467,
334,467,
285,468,
291,465,
319,465,
344,466,
339,463,
290,461,
287,461,
312,461,
343,461,
339,463,
292,463,
282,462,
310,463,
335,462,
338,459,
291,460,
273,456,
305,454,
331,449,
338,446,
294,444,
274,444,
298,441,
327,439,
342,439,
298,435,
267,435,
292,434,
324,431,
337,431,
303,430,
271,429,
289,427,
317,429,
335,427,
305,429,
263,431,
283,432,
313,433,
333,433,
309,433,
266,434,
282,433,
305,433,
330,431,
312,434,
261,436,
272,435,
297,437,
321,441,
308,442,
255,441,
263,449,
290,460,
313,479,
307,492,
259,499,
254,499,
282,497,
312,493,
309,486,
262,481,
251,475,
283,472,
311,468,
317,463,
272,460,
254,455,
287,459,
319,460,
328,461,
290,465,
271,473,
303,482,
336,492,
353,504,
320,515,
294,530,
327,544,
364,561,
389,574,
358,589,
329,605,
359,619,
398,634,
421,648,
397,660,
362,670,
389,682,
422,695,
447,706,
425,712,
386,713,
403,710,
434,707,
460,700,
444,698,
400,692,
412,688,
445,684,
468,679,
454,674,
407,665,
410,660,
438,659,
464,653,
458,650,
408,644,
402,640,
428,640,
454,643,
451,651,
401,655,
389,656,
412,659,
437,660,
439,657,
389,652,
367,649,
398,646,
422,645,
428,645,
377,640,
352,631,
375,615,
401,597,
410,574,
366,552,
332,535,
355,516,
380,500,
389,486,
351,474,
313,461,
334,451,
360,442,
377,431,
343,424,
298,419,
317,417,
345,415,
361,414,
333,413,
292,416,
305,414,
333,414,
354,415,
337,416,
285,416,
299,416,
326,417,
347,419,
334,420,
285,420,
289,422,
320,425,
344,427,
337,430,
289,432,
285,435,
314,438,
340,440,
337,442,
291,443,
279,445,
309,446,
334,447,
336,448,
293,448,
274,448,
303,452,
328,452,
340,453,
292,454,
270,454,
297,454,
324,452,
338,452,
302,449,
265,449,
292,445,
318,446,
339,445,
300,443,
265,449,
287,447,
317,447,
335,445,
306,443,
265,442,
286,439,
314,439,
333,439,
309,435,
263,435,
279,434,
312,435,
333,431,
311,431,
269,431,
276,429,
304,428,
327,429,
312,426,
268,428,
269,426,
297,428,
322,425,
314,425,
269,423,
262,422,
289,420,
315,418,
315,419,
268,416,
258,415,
287,414,
314,414,
316,413,
272,413,
253,411,
283,413,
313,413,
323,418,
282,417,
258,422,
283,426,
315,433,
332,439,
295,447,
269,457,
299,469,
333,483,
354,496,
327,511,
297,528,
327,545,
358,559,
388,577,
366,593,
333,607,
358,624,
397,640,
422,651,
405,662,
366,671,
387,679,
420,690,
451,695,
437,703,
394,705,
411,711,
438,713,
465,712,
460,710,
412,706,
418,705,
448,703,
474,699,
467,693,
421,687,
416,683,
446,678,
473,674,
468,665,
419,662,
404,656,
430,652,
458,648,
457,640,
413,635,
390,626,
418,623,
440,615,
449,610,
401,605,
375,599,
399,592,
420,586,
429,580,
387,571,
352,563,
373,558,
397,550,
413,544,
371,537,
331,530,
350,522,
377,514,
390,508,
355,502,
314,495,
326,491,
355,487,
370,481,
344,478,
296,473,
309,471,
338,468,
357,464,
336,461,
286,459,
295,459,
322,459,
343,459,
332,459,
280,458,
284,459,
313,462,
337,463,
333,465,
285,467,
279,470,
309,473,
337,478,
337,479,
290,481,
278,484,
310,487,
338,488,
341,487,
297,491,
274,491,
307,493,
335,510,
345,532,
299,552,
277,569,
303,581,
335,591,
347,600,
301,602,
273,604,
298,606,
328,604,
345,600,
310,594,
273,589,
296,581,
321,571,
341,563,
311,555,
270,547,
287,539,
315,529,
335,519,
308,511,
267,502,
280,491,
309,482,
332,472,
314,464,
268,456,
276,452,
304,448,
326,441,
315,433,
267,427,
266,424,
289,423,
318,420,
311,417,
262,412,
256,408,
285,407,
307,403,
310,403,
260,402,
252,403,
281,403,
308,398,
311,392,
272,388,
248,382,
281,381,
309,380,
320,382,
273,384,
250,387,
278,387,
305,384,
321,386,
284,386,
252,389,
277,392,
309,398,
327,397,
295,396,
260,399,
283,401,
315,407,
336,413,
312,421,
275,429,
299,441,
332,453,
356,469,
342,485,
303,499,
320,520,
360,541,
386,562,
378,583,
338,604,
349,621,
387,636,
417,654,
414,664,
367,675,
380,683,
411,690,
440,696,
440,702,
397,706,
396,708,
428,709,
455,705,
459,704,
416,696,
403,692,
435,687,
464,680,
469,673,
423,668,
402,660,
433,656,
460,652,
471,646,
425,638,
399,635,
424,627,
449,624,
463,618,
422,611,
387,606,
411,600,
436,596,
449,590,
415,584,
375,580,
396,575,
422,571,
438,566,
407,561,
364,555,
381,547,
406,540,
421,534,
399,527,
347,522,
358,518,
383,513,
404,508,
381,503,
330,500,
332,495,
359,490,
378,487,
365,483,
312,480,
310,477,
337,474,
358,472,
351,469,
300,466,
291,465,
317,464,
342,463,
341,461,
294,461,
279,459,
309,461,
333,460,
341,459,
295,461,
271,462,
300,464,
330,467,
337,470,
298,467,
274,471,
299,469,
325,474,
340,473,
306,470,
275,469,
300,468,
326,467,
347,463,
314,460,
276,459,
296,455,
325,454,
348,452,
318,451,
278,449,
294,448,
327,449,
345,448,
325,447,
279,445,
290,442,
318,441,
340,439,
323,437,
274,434,
283,432,
313,431,
334,430,
325,429,
276,424,
275,424,
305,422,
327,423,
322,421,
275,420,
268,419,
297,421,
322,424,
323,423,
277,424,
261,420,
290,419,
316,416,
323,413,
277,411,
258,409,
287,411,
312,408,
324,407,
285,404,
257,403,
285,401,
311,400,
329,398,
288,398,
256,396,
279,397,
308,397,
327,399,
291,398,
254,399,
277,398,
305,401,
325,402,
298,404,
255,408,
274,415,
305,423,
324,430,
308,441,
265,452,
283,466,
317,482,
344,500,
334,519,
291,536,
306,557,
345,596,
371,638,
369,678,
326,716,
336,753,
369,785,
400,812,
406,836,
364,853,
364,865,
397,878,
426,886,
435,887,
393,881,
384,872,
417,859,
444,843,
453,825,
413,805,
393,788,
422,773,
449,757,
462,739,
419,721,
394,702,
420,687,
444,671,
460,657,
419,646,
388,633,
410,624,
438,616,
454,602,
416,589,
379,578,
395,567,
424,559,
441,551,
411,542,
371,531,
381,518,
408,505,
423,494,
399,482,
353,473,
359,463,
386,458,
406,450,
389,443,
336,437,
341,432,
365,427,
386,425,
376,421,
322,413,
318,411,
345,407,
366,404,
359,401,
310,401,
298,399,
325,400,
347,402,
348,404,
299,410,
281,412,
313,417,
336,421,
341,424,
296,430,
276,432,
300,439,
327,444,
341,450,
299,451,
269,457,
291,460,
324,466,
339,465,
299,465,
267,463,
291,461,
320,460,
339,461,
306,454,
266,456,
288,459,
316,456,
336,452,
309,449,
266,446,
283,445,
311,446,
332,445,
310,444,
269,443,
280,437,
311,437,
333,434,
319,428,
265,424,
274,419,
305,412,
330,408,
320,405,
276,402,
276,403,
306,403,
328,402,
328,405,
280,407,
269,410,
299,412,
324,414,
327,412,
281,413,
262,415,
295,418,
322,420,
329,419,
285,418,
263,419,
291,419,
321,420,
330,422,
290,420,
262,418,
285,414,
314,412,
326,410,
290,409,
256,409,
280,412,
304,411,
325,414,
294,414,
257,412,
277,412,
304,410,
322,410,
297,411,
254,414,
272,418,
299,421,
318,421,
299,424,
254,424,
266,423,
294,423,
315,422,
303,423,
253,420,
259,422,
291,424,
316,427,
308,430,
267,436,
268,444,
303,454,
332,462,
336,469,
290,481,
289,490,
326,505,
358,518,
366,531,
330,543,
318,555,
357,568,
391,578,
407,591,
366,602,
355,616,
388,628,
426,641,
442,652,
408,659,
387,665,
415,669,
449,671,
468,672,
436,674,
407,672,
430,672,
463,675,
484,674,
455,670,
415,668,
434,664,
466,659,
486,652,
460,644,
418,636,
431,634,
459,629,
478,622,
459,616,
410,605,
418,597,
443,591,
467,584,
451,573,
399,561,
402,554,
426,551,
450,546,
435,541,
384,537,
378,533,
403,529,
425,527,
416,526,
367,523,
352,528,
376,540,
398,549,
398,563,
348,569,
324,568,
349,569,
376,563,
381,556,
330,547,
305,539,
329,532,
352,527,
362,519,
315,515,
287,507,
312,499,
338,494,
352,484,
314,477,
277,473,
297,470,
328,472,
343,472,
312,474,
271,473,
294,471,
322,475,
343,476,
318,480,
277,481,
293,486,
322,489,
344,490,
328,492,
281,494,
294,499,
323,500,
346,503,
335,501,
288,502,
292,499,
322,499,
345,496,
335,494,
288,491,
282,489,
313,477,
335,452,
336,425,
288,396,
277,372,
306,351,
332,331,
337,314,
288,299,
271,286,
299,278,
325,271,
336,271,
290,273,
265,274,
292,276,
319,282,
330,287,
291,295,
258,304,
283,316,
315,327,
331,341,
292,355,
255,363,
276,367,
305,369,
324,374,
294,373,
252,371,
271,370,
300,366,
320,365,
296,363,
252,361,
265,363,
297,364,
317,367,
298,371,
250,370,
258,367,
290,369,
311,370,
298,369,
248,369,
252,374,
283,376,
306,381,
298,382,
248,386,
244,389,
277,393,
301,397,
303,399,
251,400,
242,402,
274,405,
299,406,
303,408,
259,411,
240,416,
271,422,
298,427,
310,432,
266,433,
244,436,
274,440,
303,440,
319,445,
280,449,
251,455,
279,463,
308,470,
334,479,
304,489,
272,498,
302,509,
338,520,
361,530,
335,543,
305,554,
330,566,
368,579,
396,591,
380,601,
342,609,
366,616,
404,625,
432,631,
421,635,
381,640,
394,644,
429,648,
457,652,
451,655,
407,652,
415,653,
446,654,
471,654,
469,653,
421,653,
415,653,
449,650,
473,650,
473,647,
424,644,
410,640,
441,636,
465,634,
467,631,
420,629,
397,623,
424,622,
447,619,
454,618,
405,614,
376,609,
400,604,
427,598,
435,595,
391,589,
357,585,
379,577,
401,572,
417,565,
381,556,
339,550,
360,545,
386,536,
401,529,
368,521,
323,511,
340,507,
366,499,
384,492,
357,486,
312,480,
318,474,
345,468,
366,462,
346,457,
292,454,
302,450,
329,449,
352,449,
337,447,
289,446,
292,446,
322,448,
344,448,
338,449,
290,452,
287,453,
313,458,
338,459,
338,462,
292,465,
279,468,
310,475,
337,480,
342,483,
298,485,
275,487,
307,491,
332,492,
343,494,
298,493,
273,494,
300,494,
328,494,
341,494,
301,494,
268,490,
295,490,
322,486,
338,487,
305,485,
270,483,
288,481,
318,483,
336,485,
308,486,
267,486,
284,487,
314,486,
333,481,
311,474,
266,466,
277,458,
307,453,
327,447,
311,441,
261,436,
268,434,
297,428,
323,423,
312,420,
263,415,
263,412,
295,410,
319,407,
314,404,
265,399,
258,398,
288,397,
313,396,
316,397,
267,395,
256,395,
283,399,
312,401,
317,400,
275,403,
251,401,
278,407,
311,409,
323,411,
278,412,
255,415,
281,417,
308,417,
324,419,
286,421,
251,421,
277,421,
306,425,
322,426,
285,428,
251,429,
274,433,
301,436,
321,440,
294,443,
254,450,
274,455,
307,463,
332,471,
315,476,
275,488,
293,498,
330,509,
359,519,
350,530,
311,540,
324,555,
363,564,
397,576,
391,585,
349,594,
358,604,
394,613,
424,620,
426,627,
382,633,
380,638,
414,642,
442,646,
448,650,
403,649,
391,649,
419,650,
449,651,
458,649,
414,648,
394,644,
421,644,
451,641,
459,634,
418,630,
390,626,
417,621,
440,618,
457,617,
416,615,
379,610,
403,608,
431,603,
444,601,
408,596,
370,592,
387,587,
415,586,
429,581,
399,577,
353,572,
369,570,
395,562,
409,555,
387,550,
336,544,
341,538,
369,532,
389,523,
369,517,
316,509,
319,501,
345,496,
368,493,
354,487,
301,482,
299,479,
326,477,
349,476,
339,471,
292,469,
281,465,
310,464,
331,464,
334,460,
289,459,
272,457,
299,457,
332,456,
335,456,
293,459,
272,459,
300,463,
325,465,
336,467,
296,469,
267,471,
296,475,
321,478,
334,482,
299,484,
264,486,
290,487,
317,488,
336,487,
302,487,
264,491,
286,491,
314,492,
333,492,
306,492,
266,490,
279,489,
308,486,
327,486,
309,483,
264,480,
277,477,
305,475,
326,472,
314,470,
263,468,
271,465,
298,463,
322,466,
314,464,
262,464,
262,465,
295,467,
319,467,
317,468,
270,468,
260,470,
290,468,
316,466,
317,462,
271,457,
254,451,
285,448,
311,443,
319,439,
272,436,
255,427,
281,427,
308,426,
320,424,
280,420,
249,420,
273,418,
303,416,
318,415,
282,413,
246,410,
272,411,
298,411,
319,411,
286,412,
250,414,
267,415,
296,417,
317,421,
291,421,
250,420,
263,426,
294,436,
314,462,
298,492,
254,519,
263,547,
295,575,
316,596,
304,619,
258,637,
264,657,
300,671,
329,680,
323,685,
274,690,
281,699,
314,709,
346,724,
347,737,
309,751,
306,761,
344,771,
378,778,
384,779,
350,782,
338,778,
377,774,
413,768,
426,763,
385,760,
371,759,
404,754,
436,744,
454,732,
417,718,
390,710,
421,704,
448,699,
467,696,
430,690,
399,688,
420,684,
452,677,
470,669,
438,657,
398,647,
416,629,
444,615,
466,598,
440,584,
396,573,
411,570,
437,565,
455,559,
437,554,
384,545,
396,540,
422,535,
441,532,
425,529,
376,529,
379,536,
401,546,
426,548,
415,543,
362,539,
356,531,
382,521,
401,515,
396,504,
345,496,
329,488,
357,481,
380,478,
377,474,
331,473,
308,470,
337,472,
360,471,
368,473,
321,469,
295,470,
319,471,
343,473,
356,473,
312,475,
278,475,
304,478,
327,481,
347,481,
307,482,
269,487,
294,482,
319,475,
337,467,
305,459,
264,454,
283,450,
312,450,
331,447,
306,445,
258,442,
275,440,
306,438,
328,438,
309,442,
265,445,
275,447,
305,452,
330,453,
318,457,
266,460,
270,468,
301,472,
329,480,
322,482,
271,486,
269,489,
299,495,
323,492,
324,486,
276,477,
263,470,
295,466,
322,463,
326,459,
278,455,
261,452,
294,450,
321,450,
330,452,
284,452,
260,460,
288,458,
316,457,
330,452,
288,447,
258,441,
286,438,
314,435,
330,433,
293,431,
256,431,
280,430,
307,426,
327,426,
296,426,
257,425,
276,426,
304,427,
322,426,
299,428,
254,429,
267,430,
295,428,
317,426,
298,427,
250,426,
255,431,
283,431,
308,429,
292,427,
244,427,
250,427,
279,422,
304,422,
298,421,
247,426,
246,421,
276,417,
303,417,
304,420,
254,419,
246,423,
278,427,
305,434,
313,436,
269,439,
250,446,
284,459,
316,471,
325,484,
288,497,
269,513,
297,528,
336,542,
358,555,
324,568,
301,585,
333,606,
364,622,
391,632,
358,639,
332,644,
359,646,
394,647,
419,649,
395,649,
358,651,
383,650,
415,650,
440,651,
420,648,
380,644,
396,642,
425,641,
449,640,
430,640,
388,639,
397,639,
430,641,
452,641,
441,642,
393,641,
392,639,
422,638,
443,638,
439,638,
387,635,
383,636,
406,640,
431,637,
426,632,
379,630,
361,626,
389,622,
415,620,
415,617,
367,611,
341,607,
370,605,
394,603,
401,598,
351,591,
326,587,
349,580,
375,576,
386,566,
342,557,
305,544,
327,531,
352,521,
366,509,
329,498,
287,490,
309,482,
334,476,
350,469,
321,465,
277,459,
294,457,
319,456,
336,457,
315,459,
268,463,
282,465,
309,472,
331,474,
314,481,
268,485,
271,485,
304,487,
327,486,
319,485,
271,484,
272,485,
304,489,
328,493,
327,499,
280,508,
275,515,
304,515,
330,512,
333,507,
282,504,
269,496,
301,493,
327,489,
335,482,
290,479,
268,471,
295,468,
322,469,
334,471,
293,470,
265,469,
293,466,
323,468,
335,464,
293,464,
261,464,
285,466,
316,470,
332,473,
299,478,
261,486,
282,486,
311,486,
333,484,
302,480,
261,473,
281,470,
306,467,
329,464,
309,461,
262,457,
274,454,
302,454,
327,452,
312,451,
265,451,
271,445,
301,438,
322,436,
312,432,
265,429,
264,421,
292,418,
320,414,
319,411,
270,410,
263,408,
292,410,
319,408,
321,407,
271,403,
257,401,
283,401,
314,405,
318,404,
273,409,
251,411,
277,416,
305,425,
317,433,
274,441,
247,453,
274,465,
307,478,
322,486,
289,495,
259,506,
288,521,
319,533,
347,551,
318,566,
288,581,
313,593,
348,605,
377,616,
358,625,
319,633,
345,642,
381,649,
407,655,
394,659,
357,667,
370,673,
406,678,
433,681,
423,685,
379,682,
388,684,
419,685,
445,681,
437,676,
390,673,
388,668,
420,665,
443,659,
438,657,
391,653,
381,649,
408,645,
432,643,
431,640,
387,641,
367,643,
396,644,
421,648,
428,644,
377,639,
353,631,
377,627,
404,620,
411,612,
367,607,
338,602,
359,595,
385,589,
396,583,
355,578,
319,571,
339,564,
361,557,
377,553,
340,544,
300,540,
317,533,
344,531,
360,524,
334,518,
287,512,
301,508,
327,506,
347,499,
326,496,
283,490,
290,485,
321,483,
338,477,
326,471,
275,469,
280,466,
308,468,
332,469,
325,472,
276,473,
273,478,
304,485,
329,489,
326,495,
279,504,
272,513,
300,520,
326,522,
327,522,
282,522,
265,526,
295,535,
324,539,
334,542,
289,542,
267,546,
296,550,
323,551,
335,552,
293,547,
265,541,
291,537,
321,533,
337,526,
297,517,
264,513,
288,507,
313,502,
338,494,
303,486,
265,477,
283,468,
312,460,
333,449,
309,438,
266,429,
281,422,
307,413,
329,403,
311,399,
264,395,
272,395,
301,393,
328,390,
311,391,
267,388,
269,392,
298,400,
321,413,
315,416,
263,415,
265,409,
290,403,
316,399,
315,392,
265,387,
257,381,
288,378,
314,374,
316,373,
271,373,
252,376,
280,380,
310,390,
319,396,
276,400,
254,406,
283,411,
310,417,
322,428,
283,438,
253,446,
279,452,
308,461,
329,469,
291,474,
259,485,
282,491,
315,503,
335,511,
310,525,
272,536,
297,554,
331,581,
354,608,
336,624,
298,635,
320,641,
355,645,
382,649,
373,661,
330,668,
345,675,
378,682,
409,684,
403,685,
362,682,
370,681,
402,679,
432,677,
434,672,
387,665,
387,659,
421,656,
449,653,
451,648,
407,647,
397,644,
428,645,
453,645,
456,646,
414,651,
391,653,
419,656,
446,657,
454,653,
410,653,
385,646,
408,637,
430,623,
443,612,
397,600,
368,589,
386,580,
415,570,
430,564,
388,557,
349,552,
366,544,
393,540,
412,535,
376,528,
331,523,
345,518,
372,515,
387,508,
361,507,
315,504,
326,502,
352,500,
370,495,
351,495,
301,494,
304,494,
333,499,
353,503,
342,507,
290,508,
291,512,
321,520,
343,529,
338,534,
285,533,
280,535,
311,539,
334,549,
334,556,
286,558,
270,558,
300,557,
327,555,
332,552,
286,547,
264,538,
291,534,
322,527,
333,522,
292,511,
268,505,
297,498,
326,490,
342,488,
304,485,
272,479,
299,475,
326,467,
345,457,
311,448,
275,441,
296,431,
326,425,
343,417,
312,411,
272,405,
291,401,
318,394,
340,389,
316,383,
273,382,
284,384,
312,387,
336,390,
319,392,
270,395,
278,399,
307,402,
330,405,
318,408,
267,411,
267,411,
297,411,
320,413,
316,416,
268,418,
259,420,
290,425,
317,431,
314,435,
268,438,
254,443,
284,449,
311,450,
314,451,
271,453,
248,451,
279,453,
307,452,
320,451,
279,448,
250,448,
277,445,
308,444,
323,442,
286,442,
254,442,
278,442,
306,441,
324,439,
293,437,
255,438,
277,438,
308,437,
325,438,
301,442,
259,445,
279,454,
311,461,
333,473,
317,495,
274,528,
293,559,
325,586,
354,608,
346,626,
305,643,
314,662,
353,681,
383,696,
380,710,
340,729,
345,747,
380,757,
412,758,
412,759,
369,755,
369,755,
400,757,
429,763,
434,764,
391,759,
377,753,
409,748,
437,740,
445,734,
402,726,
382,717,
407,711,
436,709,
447,708,
404,701,
375,694,
402,684,
430,674,
442,661,
402,649,
368,636,
391,628,
418,621,
431,615,
396,620,
357,622,
378,618,
404,612,
421,597,
394,579,
351,564,
365,549,
393,534,
408,521,
390,506,
340,493,
349,482,
374,474,
394,463,
376,456,
326,448,
327,441,
355,435,
375,431,
365,428,
312,426,
307,428,
335,432,
357,437,
354,444,
303,450,
292,457,
322,473,
347,494,
347,520,
299,538,
279,546,
311,550,
337,546,
342,539,
295,535,
275,527,
303,521,
329,512,
344,502,
301,493,
274,485,
302,478,
330,470,
349,465,
310,459,
278,456,
303,453,
330,449,
347,446,
314,443,
274,440,
297,441,
323,442,
341,441,
315,443,
271,443,
288,447,
318,449,
335,449,
316,452,
269,454,
282,455,
312,460,
332,459,
319,461,
268,462,
278,463,
307,461,
334,463,
321,462,
275,469,
273,472,
303,471,
327,468,
326,463,
273,455,
268,450,
298,445,
325,441,
326,433,
279,427,
262,422,
292,418,
316,414,
329,411,
280,409,
258,408,
286,407,
311,404,
325,402,
282,400,
254,401,
282,401,
310,402,
326,403,
289,403,
253,407,
276,407,
304,413,
324,416,
291,421,
252,425,
273,432,
305,438,
327,445,
303,455,
264,465,
278,479,
314,498,
339,514,
326,530,
284,544,
300,558,
333,571,
364,584,
359,594,
316,606,
330,615,
368,626,
397,634,
397,642,
356,647,
359,653,
391,658,
424,664,
426,669,
385,675,
378,677,
412,680,
441,681,
448,679,
403,680,
386,678,
420,679,
446,679,
458,677,
414,675,
390,672,
417,669,
443,663,
456,657,
415,652,
385,646,
409,643,
437,635,
448,631,
409,627,
376,623,
393,619,
421,615,
438,610,
401,604,
356,601,
372,595,
399,592,
416,585,
387,583,
338,587,
351,608,
375,639,
393,669,
368,699,
325,724,
328,745,
358,761,
377,774,
362,784,
308,788,
311,788,
339,791,
358,786,
352,780,
301,770,
293,760,
320,750,
347,736,
342,722,
295,702,
284,680,
314,662,
341,641,
345,620,
296,600,
280,580,
313,559,
338,540,
349,527,
304,508,
282,493,
310,474,
338,454,
353,439,
309,427,
281,416,
310,408,
336,401,
351,395,
314,389,
281,384,
302,382,
327,380,
348,381,
318,382,
276,379,
294,380,
322,381,
348,379,
322,377,
277,381,
287,383,
317,386,
340,388,
321,402,
274,415,
281,421,
311,424,
332,424,
320,424,
269,422,
274,420,
302,420,
329,422,
320,425,
273,424,
269,425,
300,423,
325,415,
326,403,
273,393,
264,390,
296,388,
320,385,
324,378,
278,375,
258,370,
289,368,
318,368,
328,369,
282,370,
259,373,
286,373,
314,376,
329,379,
288,382,
255,387,
281,390,
311,391,
327,391,
292,393,
254,395,
276,395,
305,394,
323,395,
294,394,
253,394,
272,398,
302,403,
326,411,
301,420,
263,428,
278,442,
315,455,
342,469,
328,486,
286,500,
299,519,
337,536,
368,556,
367,575,
322,591,
332,610,
370,627,
402,642,
404,655,
364,668,
368,678,
406,689,
437,697,
444,705,
404,712,
395,718,
429,723,
461,726,
471,724,
427,724,
411,718,
446,716,
474,710,
483,702,
443,697,
416,692,
441,686,
470,683,
482,678,
439,672,
408,664,
431,659,
453,654,
474,651,
436,648,
396,645,
412,640,
441,635,
459,627,
428,619,
385,611,
399,604,
426,595,
443,589,
420,581,
370,574,
380,568,
408,561,
428,554,
410,548,
356,543,
357,540,
389,537,
404,533,
388,530,
335,532,
329,532,
355,530,
374,527,
365,521,
313,519,
304,513,
329,509,
352,506,
351,500,
301,499,
285,496,
311,495,
339,496,
345,492,
299,491,
274,486,
308,487,
339,486,
346,489,
301,487,
278,491,
307,493,
333,492,
352,489,
310,486,
278,480,
304,479,
331,477,
353,477,
317,476,
284,478,
303,479,
331,480,
354,479,
325,477,
278,476,
299,473,
324,475,
346,474,
325,474,
279,473,
288,477,
322,474,
343,478,
327,483,
280,486,
285,485,
316,487,
338,484,
329,483,
279,480,
279,482,
308,482,
334,475,
332,470,
283,465,
275,458,
305,451,
331,444,
334,435,
286,428,
270,421,
298,415,
326,408,
330,401,
284,397,
263,393,
291,389,
318,383,
328,377,
283,371,
258,367,
284,362,
313,360,
327,359,
291,358,
254,360,
278,359,
308,365,
327,369,
290,372,
250,376,
272,380,
300,384,
321,387,
295,390,
254,396,
271,404,
301,413,
321,424,
306,434,
261,445,
278,459,
311,468,
339,483,
329,496,
286,511,
300,527,
339,545,
368,559,
366,573,
324,585,
333,600,
370,614,
403,627,
410,638,
366,648,
368,659,
404,672,
441,679,
444,680,
406,685,
393,686,
429,689,
461,689,
471,687,
429,687,
409,681,
440,683,
468,683,
481,684,
438,680,
415,677,
440,672,
469,669,
482,668,
446,663,
410,661,
432,654,
461,650,
478,643,
441,637,
400,634,
421,628,
445,626,
462,620,
434,616,
388,610,
403,607,
430,600,
445,593,
425,587,
374,580,
381,574,
410,570,
428,563,
410,557,
356,550,
358,548,
385,543,
403,535,
394,524,
339,511,
333,502,
362,494,
382,481,
376,472,
327,462,
315,452,
341,447,
365,439,
367,435,
318,427,
297,423,
326,420,
353,416,
360,417,
313,415,
291,414,
318,417,
346,418,
355,421,
311,427,
278,434,
305,442,
333,450,
345,459,
310,467,
275,473,
297,475,
327,476,
345,474,
313,471,
273,471,
294,473,
326,475,
345,474,
320,471,
276,470,
290,470,
325,468,
344,463,
326,462,
280,457,
292,457,
323,455,
347,453,
335,453,
287,454,
291,455,
322,456,
350,459,
336,465,
288,470,
287,475,
318,483,
343,487,
343,496,
291,499,
280,497,
306,493,
336,485,
336,476,
290,466,
271,453,
303,441,
328,430,
338,420,
290,410,
267,402,
295,394,
322,386,
331,381,
290,374,
258,373,
282,376,
308,380,
328,384,
289,385,
250,390,
272,395,
299,396,
325,400,
292,402,
251,401,
271,403,
302,405,
323,406,
298,409,
255,411,
271,417,
302,421,
326,423,
311,431,
267,438,
282,444,
317,453,
346,461,
342,472,
296,485,
314,497,
345,512,
381,527,
381,539,
340,551,
346,563,
381,573,
416,585,
423,599,
382,612,
377,627,
414,642,
445,654,
453,662,
415,670,
396,671,
432,675,
464,674,
475,673,
428,669,
407,666,
433,658,
466,650,
476,640,
432,631,
404,619,
431,609,
458,601,
474,589,
434,577,
398,566,
418,556,
449,553,
466,548,
431,545,
389,540,
405,537,
434,536,
451,535,
424,535,
377,534,
389,535,
417,534,
434,529,
409,527,
362,523,
369,521,
400,517,
417,516,
400,511,
347,508,
346,504,
373,500,
394,493,
384,489,
331,484,
325,478,
353,475,
373,476,
370,472,
317,469,
303,464,
330,464,
353,462,
354,459,
307,460,
283,459,
313,465,
339,471,
349,475,
297,472,
276,474,
304,475,
332,475,
343,473,
301,472,
270,471,
298,472,
323,474,
344,476,
305,475,
272,477,
294,476,
319,476,
341,476,
310,471,
267,473,
289,470,
319,468,
339,465,
316,462,
272,458,
286,453,
316,451,
341,444,
324,442,
275,438,
287,437,
316,439,
340,443,
328,444,
278,443,
284,445,
312,447,
339,448,
331,450,
281,453,
277,455,
306,458,
332,460,
331,457,
281,453,
270,449,
301,446,
327,442,
329,436,
285,435,
263,431,
294,431,
320,431,
330,431,
288,429,
261,431,
287,433,
316,434,
330,437,
286,435,
254,435,
280,435,
307,437,
325,438,
287,436,
249,438,
272,437,
300,433,
318,428,
288,423,
245,419,
264,419,
291,416,
311,417,
287,415,
243,415,
256,417,
287,420,
309,419,
289,423,
246,422,
253,422,
282,421,
308,418,
296,417,
246,414,
253,417,
283,419,
311,423,
310,426,
265,431,
266,439,
298,449,
333,459,
337,471,
298,483,
295,499,
334,519,
373,538,
383,551,
349,564,
337,575,
376,589,
411,601,
431,615,
395,626,
380,637,
416,653,
452,666,
474,674,
437,676,
409,682,
440,690,
474,695,
495,694,
464,692,
432,689,
454,681,
484,679,
504,676,
473,673,
434,671,
450,671,
478,670,
497,666,
477,662,
428,659,
440,655,
469,648,
489,642,
470,638,
419,631,
426,625,
451,622,
479,616,
464,608,
411,603,
409,598,
440,593,
464,587,
455,580,
403,573,
394,566,
420,561,
445,555,
439,548,
389,543,
371,539,
397,535,
420,531,
420,526,
373,522,
343,514,
366,511,
391,507,
398,502,
350,495,
318,493,
340,487,
369,485,
376,484,
333,483,
296,481,
323,486,
347,487,
364,487,
324,487,
287,487,
307,486,
333,486,
352,485,
323,484,
280,482,
299,483,
325,483,
349,488,
328,494,
281,495,
295,495,
324,496,
348,491,
333,486,
286,480,
292,476,
326,471,
351,468,
335,464,
287,457,
289,453,
317,448,
345,441,
337,435,
290,429,
282,424,
310,425,
337,425,
334,424,
288,420,
273,418,
303,418,
331,418,
335,417,
284,417,
264,415,
294,417,
321,416,
335,416,
291,417,
263,418,
286,416,
318,419,
331,422,
289,423,
255,427,
279,432,
307,436,
325,441,
294,443,
251,445,
277,446,
304,448,
324,451,
296,452,
253,455,
273,458,
301,460,
321,460,
299,459,
250,457,
265,457,
294,455,
318,454,
299,451,
251,450,
257,450,
286,453,
310,459,
297,460,
249,457,
251,452,
284,448,
308,444,
306,438,
255,430,
248,425,
276,422,
302,419,
305,415,
258,412,
241,405,
273,402,
301,395,
305,387,
260,378,
236,374,
267,372,
295,366,
310,365,
267,364,
242,367,
270,370,
303,375,
320,383,
284,388,
257,400,
283,408,
319,424,
342,436,
317,452,
284,470,
314,487,
348,507,
375,527,
358,546,
324,566,
351,587,
390,606,
417,626,
401,643,
369,661,
389,675,
424,687,
452,697,
442,706,
402,711,
413,715,
444,720,
476,731,
468,745,
421,756,
423,757,
456,756,
485,751,
479,742,
431,734,
422,721,
449,710,
477,695,
478,683,
425,670,
410,658,
438,648,
462,638,
465,625,
418,613,
393,604,
420,598,
446,591,
454,587,
410,581,
376,579,
400,573,
425,568,
440,564,
399,565,
365,560,
387,554,
414,548,
427,542,
389,533,
349,527,
362,519,
391,513,
407,506,
375,498,
326,493,
336,488,
364,485,
381,484,
357,488,
306,491,
317,493,
341,491,
361,490,
343,486,
290,480,
291,476,
322,472,
344,467,
331,463,
282,461,
281,457,
311,458,
337,459,
333,459,
283,459,
274,460,
305,463,
331,466,
335,472,
286,481,
274,494,
302,505,
337,514,
343,524,
298,532,
277,539,
308,552,
337,561,
349,563,
305,557,
277,550,
301,541,
331,532,
349,519,
309,509,
273,496,
301,484,
326,470,
346,459,
310,443,
274,432,
294,421,
323,410,
341,398,
313,391,
271,383,
285,378,
313,376,
334,375,
312,375,
266,378,
274,380,
306,385,
327,390,
311,393,
261,394,
267,399,
295,402,
318,404,
310,409,
259,411,
257,412,
288,411,
312,408,
310,403,
261,403,
251,399,
282,399,
306,401,
306,401,
261,405,
242,412,
273,423,
300,435,
311,446,
265,451,
244,455,
271,463,
300,465,
311,463,
267,455,
241,447,
269,440,
299,434,
317,428,
274,423,
247,417,
270,415,
301,413,
320,411,
289,412,
250,413,
271,417,
305,422,
330,430,
308,441,
268,456,
289,472,
326,491,
351,509,
338,527,
299,541,
314,556,
355,568,
386,578,
380,591,
337,603,
351,616,
387,629,
418,638,
417,644,
373,649,
378,653,
413,656,
441,659,
445,661,
399,660,
391,666,
425,673,
454,679,
458,685,
412,684,
394,680,
426,674,
457,671,
465,665,
420,658,
397,649,
425,645,
452,638,
464,631,
416,621,
386,614,
413,608,
438,603,
453,600,
417,594,
378,590,
402,589,
428,588,
446,587,
413,591,
370,594,
389,591,
417,582,
433,574,
403,566,
354,558,
365,552,
396,548,
408,544,
386,541,
334,535,
342,532,
367,526,
386,521,
367,517,
319,511,
316,505,
342,504,
366,499,
351,498,
298,496,
291,493,
320,495,
342,497,
338,507,
285,515,
277,520,
304,527,
329,534,
330,539,
283,545,
267,548,
296,553,
328,557,
334,557,
290,559,
269,558,
298,558,
323,552,
338,542,
299,532,
268,524,
295,515,
324,506,
341,499,
305,490,
268,482,
292,475,
323,467,
345,463,
311,457,
268,451,
286,447,
318,443,
336,438,
306,436,
263,433,
279,432,
311,430,
329,428,
311,429,
262,426,
275,429,
305,430,
327,432,
313,436,
260,440,
266,444,
296,449,
319,452,
312,455,
259,457,
258,459,
288,464,
314,462,
313,463,
264,463,
252,463,
283,463,
311,463,
311,460,
266,459,
248,456,
280,458,
306,460,
314,456,
271,458,
248,455,
275,456,
304,462,
316,465,
276,473,
245,488,
272,501,
299,508,
319,510,
278,508,
244,501,
268,491,
299,477,
319,466,
281,451,
242,438,
261,425,
291,418,
311,407,
285,399,
241,391,
257,386,
286,381,
303,378,
288,376,
241,375,
255,377,
289,382,
313,388,
304,397,
259,408,
269,420,
305,433,
336,451,
335,468,
291,487,
295,506,
335,527,
366,548,
372,571,
334,593,
333,618,
373,639,
409,661,
417,679,
380,697,
367,709,
407,721,
441,726,
456,725,
417,726,
396,723,
426,722,
461,720,
479,719,
441,716,
411,714,
438,713,
467,709,
485,707,
449,701,
414,697,
436,694,
463,689,
482,686,
450,680,
408,674,
425,669,
453,663,
470,657,
445,652,
397,645,
408,641,
432,637,
451,630,
443,626,
420,620,
420,617,
427,615,
428,609,
417,602,
393,592,
389,584,
396,579,
399,570,
389,561,
365,549,
361,541,
367,534,
369,527,
360,520,
339,511,
332,505,
340,502,
342,498,
338,493,
315,489,
308,487,
316,486,
327,485,
331,481,
289,480,
262,477,
283,476,
307,476,
321,473,
284,472,
253,472,
280,471,
306,472,
324,476,
293,475,
259,478,
283,480,
309,479,
329,481,
303,479,
266,479,
283,475,
313,475,
333,474,
308,471,
268,467,
282,465,
309,465,
331,461,
314,461,
267,456,
279,457,
308,453,
331,451,
320,447,
274,445,
276,442,
308,441,
335,441,
327,439,
279,440,
275,440,
304,441,
330,441,
327,441,
281,440,
270,442,
301,445,
328,444,
330,441,
280,441,
263,442,
292,443,
317,442,
325,443,
280,444,
257,445,
280,447,
304,448,
318,447,
276,449,
241,449,
266,453,
293,456,
309,459,
272,461,
236,463,
255,460,
285,462,
306,462,
279,461,
237,461,
258,459,
289,462,
310,459,
287,458,
243,455,
259,455,
288,455,
307,449,
290,450,
243,455,
254,461,
283,462,
305,458,
291,453,
245,447,
246,441,
276,436,
302,431,
295,426,
248,418,
245,409,
277,407,
302,402,
302,396,
255,393,
247,390,
275,390,
302,390,
304,388,
262,389,
241,390,
272,396,
306,403,
314,409,
271,418,
251,427,
282,437,
314,448,
330,458,
289,470,
264,485,
299,502,
330,518,
355,536,
326,555,
296,577,
326,596,
364,619,
389,638,
366,655,
333,670,
358,684,
396,696,
420,702,
402,709,
363,710,
384,715,
417,718,
440,718,
426,726,
383,732,
395,728,
427,723,
451,714,
439,705,
391,694,
396,684,
430,672,
454,663,
445,651,
395,639,
392,630,
420,620,
447,612,
440,605,
395,596,
381,590,
409,587,
432,582,
435,578,
389,575,
366,572,
392,569,
420,566,
424,565,
380,563,
353,561,
376,560,
403,560,
410,558,
370,556,
336,554,
357,552,
381,551,
394,548,
360,545,
319,543,
331,542,
357,540,
372,537,
341,531,
298,529,
308,527,
334,527,
352,524,
336,520,
311,516,
310,517,
315,516,
315,515,
304,513,
282,511,
286,511,
294,511,
303,512,
295,511,
278,507,
281,504,
294,504,
303,503,
299,502,
283,507,
283,512,
296,513,
308,508,
303,499,
289,490,
288,481,
302,472,
328,466,
335,456,
294,448,
274,440,
304,436,
332,431,
342,427,
301,422,
275,420,
302,420,
329,418,
340,418,
300,417,
269,416,
293,418,
317,420,
334,421,
296,424,
260,425,
280,426,
310,433,
327,436,
294,439,
254,441,
273,444,
303,447,
321,447,
297,452,
252,454,
269,455,
299,455,
319,456,
296,459,
250,459,
262,460,
292,462,
314,465,
302,465,
251,463,
256,464,
288,464,
310,464,
303,462,
251,460,
250,459,
280,459,
307,457,
306,457,
255,453,
245,450,
276,449,
300,445,
303,444,
258,442,
237,440,
266,439,
293,438,
305,438,
257,437,
235,435,
262,436,
289,440,
302,441,
262,446,
234,447,
264,451,
294,459,
312,474,
277,500,
249,525,
276,551,
310,581,
332,606,
307,624,
273,640,
298,657,
337,674,
362,687,
343,701,
308,709,
330,715,
366,720,
395,721,
380,724,
344,727,
359,733,
393,736,
422,742,
411,747,
372,755,
381,759,
414,760,
442,756,
438,753,
392,747,
390,743,
422,736,
448,730,
445,721,
399,714,
387,716,
417,715,
446,710,
443,704,
397,697,
374,690,
404,680,
428,667,
439,653,
391,637,
364,629,
387,615,
416,602,
424,588,
380,573,
348,561,
371,550,
398,540,
410,531,
371,524,
333,518,
350,512,
378,503,
393,499,
360,493,
316,488,
330,483,
359,484,
375,482,
347,480,
300,482,
313,486,
339,487,
356,491,
336,497,
286,499,
298,502,
323,504,
342,511,
328,510,
278,508,
282,503,
313,501,
335,499,
327,497,
278,499,
276,498,
306,493,
330,488,
331,482,
280,475,
270,467,
302,463,
329,459,
328,457,
285,459,
265,460,
296,461,
325,459,
332,456,
292,450,
266,454,
294,458,
323,462,
330,465,
292,463,
263,467,
284,471,
314,472,
329,475,
291,477,
258,483,
280,488,
310,491,
327,495,
295,496,
255,491,
276,485,
306,481,
323,472,
298,468,
252,464,
267,464,
299,461,
317,458,
300,455,
254,446,
261,441,
291,432,
315,426,
302,418,
251,411,
260,407,
289,403,
313,402,
306,399,
256,395,
252,394,
281,389,
307,387,
306,383,
255,380,
247,381,
277,384,
303,388,
307,392,
263,395,
242,396,
275,400,
308,401,
316,400,
271,402,
246,402,
276,402,
304,406,
315,411,
275,412,
245,406,
272,400,
304,394,
319,392,
280,390,
250,390,
271,388,
301,392,
319,395,
288,395,
249,393,
269,391,
298,387,
318,386,
295,390,
250,393,
265,406,
294,416,
318,424,
302,434,
256,442,
270,451,
300,460,
326,468,
316,474,
270,481,
279,490,
314,498,
344,508,
341,516,
298,526,
300,537,
337,551,
368,565,
374,579,
330,591,
325,603,
362,615,
391,629,
401,637,
360,646,
349,654,
380,665,
414,673,
427,682,
385,695,
367,705,
395,716,
429,725,
447,731,
404,736,
378,742,
407,752,
437,761,
453,767,
417,767,
383,767,
407,768,
433,769,
456,770,
423,763,
384,760,
402,751,
431,742,
451,731,
425,721,
379,709,
392,699,
417,684,
435,666,
412,649,
361,633,
370,619,
396,604,
416,595,
398,585,
345,572,
349,562,
374,555,
399,550,
385,541,
334,533,
326,526,
352,516,
373,507,
369,499,
316,487,
302,477,
330,472,
353,467,
355,462,
308,461,
284,460,
315,462,
340,461,
348,461,
305,459,
276,460,
302,463,
332,468,
343,475,
300,481,
269,480,
293,480,
321,476,
338,472,
301,473,
264,470,
289,465,
318,464,
336,461,
305,458,
266,452,
286,441,
314,427,
333,410,
309,394,
263,380,
278,368,
308,359,
328,350,
311,346,
263,341,
274,337,
301,337,
330,337,
315,339,
263,341,
271,347,
301,354,
326,361,
317,371,
268,383,
267,414,
297,447,
323,479,
322,509,
273,532,
261,549,
291,564,
315,575,
320,582,
274,587,
256,587,
285,589,
311,587,
320,583,
275,576,
250,569,
278,563,
304,557,
315,547,
272,532,
240,519,
266,503,
295,492,
310,484,
275,472,
238,464,
262,458,
292,451,
310,443,
277,437,
241,432,
261,423,
292,411,
313,397,
289,383,
245,365,
264,353,
294,341,
315,329,
297,319,
251,314,
260,313,
290,314,
313,315,
302,314,
252,316,
258,318,
289,320,
314,320,
306,321,
257,320,
256,317,
283,315,
311,315,
310,313,
259,316,
251,318,
281,326,
306,340,
309,345,
260,350,
244,352,
276,357,
304,361,
311,364,
265,370,
244,372,
271,376,
303,381,
315,388,
276,397,
247,406,
275,418,
307,429,
323,442,
291,453,
260,466,
287,482,
319,496,
343,513,
316,527,
280,543,
306,560,
342,574,
369,587,
346,600,
310,615,
335,624,
371,635,
398,640,
386,648,
346,653,
364,656,
399,663,
427,663,
416,661,
373,659,
380,657,
413,656,
441,654,
436,652,
390,655,
387,653,
420,654,
446,655,
445,656,
394,659,
384,655,
412,649,
436,638,
438,626,
388,618,
369,607,
398,599,
424,589,
430,581,
383,574,
358,565,
384,562,
409,559,
419,554,
376,552,
344,551,
371,551,
397,552,
412,555,
372,562,
335,569,
357,569,
381,567,
399,564,
363,555,
321,548,
338,542,
367,534,
383,529,
353,522,
305,513,
320,505,
349,501,
366,496,
342,494,
296,488,
306,484,
334,483,
355,478,
339,475,
289,473,
293,470,
323,466,
345,461,
333,456,
286,451,
280,448,
311,446,
335,445,
332,445,
281,447,
271,449,
299,454,
329,458,
329,462,
284,465,
265,468,
298,471,
324,480,
332,481,
287,489,
264,496,
294,502,
321,501,
333,496,
293,490,
262,482,
291,474,
318,462,
334,449,
296,440,
265,428,
284,419,
315,410,
337,403,
300,398,
261,394,
283,386,
310,385,
331,384,
305,381,
261,382,
278,383,
306,385,
326,386,
306,388,
261,390,
272,392,
302,397,
324,400,
310,405,
261,407,
267,410,
299,416,
321,423,
312,425,
263,431,
262,435,
289,439,
316,445,
314,449,
261,456,
258,464,
289,472,
314,478,
317,482,
271,484,
254,483,
286,484,
313,483,
320,480,
276,478,
254,470,
282,470,
312,465,
320,461,
277,459,
248,454,
275,450,
302,448,
318,444,
281,442,
250,441,
271,439,
302,440,
321,442,
288,443,
254,446,
275,451,
306,455,
328,462,
304,469,
267,476,
282,486,
319,496,
344,504,
333,516,
292,528,
310,539,
347,550,
375,562,
368,574,
325,585,
335,598,
375,608,
405,620,
401,629,
359,640,
360,646,
397,657,
425,668,
426,678,
380,677,
374,677,
407,672,
435,667,
441,664,
393,657,
378,654,
410,649,
440,646,
444,641,
401,637,
380,634,
406,638,
434,637,
447,637,
399,640,
368,644,
394,650,
419,653,
432,651,
392,649,
354,641,
378,639,
404,632,
420,629,
384,619,
341,611,
362,603,
387,596,
406,587,
377,576,
331,565,
343,554,
372,547,
387,535,
362,531,
316,532,
326,534,
352,535,
373,532,
352,528,
299,524,
301,521,
330,517,
353,517,
340,516,
293,513,
290,511,
318,509,
342,506,
339,504,
289,502,
278,504,
307,508,
334,506,
338,500,
289,493,
275,483,
305,475,
331,464,
337,456,
291,448,
270,439,
298,437,
324,431,
336,426,
293,421,
266,417,
294,411,
325,410,
339,407,
300,402,
267,400,
292,398,
320,396,
339,395,
308,393,
268,393,
286,392,
315,393,
335,391,
310,391,
266,390,
283,395,
312,394,
331,396,
310,399,
266,402,
277,406,
308,410,
330,415,
316,416,
267,420,
275,424,
301,429,
327,432,
320,437,
269,440,
268,444,
299,448,
325,452,
316,458,
269,460,
261,461,
291,464,
314,466,
315,469,
268,472,
254,476,
284,479,
310,484,
316,487,
271,491,
249,491,
275,496,
306,502,
316,504,
273,506,
244,506,
272,505,
298,500,
315,491,
277,482,
244,470,
266,460,
297,449,
319,437,
284,425,
246,412,
270,399,
296,389,
316,378,
290,368,
247,359,
269,353,
291,345,
316,340,
297,335,
252,331,
265,329,
296,328,
319,329,
303,331,
257,333,
266,338,
298,346,
323,353,
314,362,
267,372,
272,384,
300,396,
329,410,
329,421,
286,439,
282,454,
315,466,
350,482,
355,497,
316,514,
305,531,
343,552,
373,567,
391,583,
354,597,
339,609,
370,622,
407,631,
423,639,
388,644,
363,649,
394,654,
427,658,
449,661,
413,665,
382,672,
411,676,
442,679,
459,683,
424,688,
391,692,
411,696,
440,698,
459,698,
431,695,
386,690,
403,686,
430,680,
447,671,
425,664,
377,654,
385,645,
414,640,
437,633,
412,622,
369,613,
369,603,
396,597,
419,587,
410,579,
356,569,
355,560,
382,551,
404,546,
399,536,
346,529,
339,523,
364,517,
386,511,
386,508,
334,502,
319,497,
339,493,
364,488,
366,485,
317,481,
291,476,
320,475,
342,472,
353,469,
303,467,
277,466,
298,465,
326,462,
342,461,
299,460,
269,457,
292,456,
319,456,
342,453,
307,452,
267,454,
287,455,
317,455,
336,454,
309,454,
268,452,
285,453,
313,455,
335,453,
313,452,
270,453,
284,457,
313,458,
336,458,
320,457,
275,456,
282,457,
314,457,
338,458,
327,460,
281,460,
279,459,
310,461,
334,462,
329,464,
275,471,
271,475,
303,477,
325,479,
326,475,
280,473,
267,467,
295,467,
320,464,
326,457,
275,451,
255,441,
287,438,
312,430,
322,428,
278,422,
252,418,
280,412,
307,409,
322,406,
284,400,
252,395,
279,393,
304,390,
323,392,
288,398,
252,406,
273,409,
303,414,
326,418,
291,417,
252,416,
268,415,
299,413,
319,411,
297,408,
251,404,
263,403,
295,401,
315,401,
298,397,
251,399,
259,397,
291,400,
316,398,
301,399,
256,401,
259,401,
288,402,
314,405,
312,406,
264,410,
256,414,
287,416,
313,418,
317,423,
275,427,
260,431,
295,436,
326,442,
336,451,
294,459,
275,467,
308,482,
342,494,
360,506,
318,516,
297,529,
331,543,
364,553,
385,565,
355,576,
327,586,
359,598,
395,606,
416,616,
386,621,
352,628,
382,632,
412,638,
437,640,
411,640,
374,642,
394,642,
424,643,
446,643,
429,642,
383,639,
397,635,
428,636,
451,632,
433,628,
385,624,
394,622,
423,617,
445,617,
432,612,
384,608,
383,605,
415,603,
434,600,
429,596,
379,596,
369,591,
394,585,
421,580,
417,576,
367,571,
351,564,
379,562,
404,560,
405,551,
359,547,
331,540,
357,537,
383,533,
392,526,
347,519,
319,516,
342,512,
363,507,
379,504,
337,501,
301,498,
326,496,
352,492,
367,489,
331,486,
291,484,
310,482,
337,479,
354,480,
320,479,
279,478,
296,475,
325,477,
342,477,
318,477,
269,475,
283,475,
313,476,
338,474,
318,475,
272,475,
279,475,
310,474,
333,477,
325,476,
276,476,
278,477,
310,475,
333,477,
327,477,
282,474,
277,473,
307,473,
334,473,
337,472,
284,471,
274,469,
303,468,
329,469,
338,468,
291,465,
267,461,
298,461,
326,460,
335,458,
291,458,
265,455,
292,454,
318,453,
331,451,
291,450,
259,446,
283,447,
309,445,
326,444,
285,443,
252,443,
273,443,
299,440,
321,442,
287,441,
249,438,
270,437,
299,439,
318,438,
295,437,
252,436,
264,435,
295,434,
317,432,
301,432,
256,431,
260,431,
292,432,
317,431,
306,430,
260,428,
260,429,
295,430,
315,431,
312,431,
264,431,
257,431,
289,433,
315,433,
314,433,
268,432,
253,431,
286,432,
311,433,
318,433,
272,437,
253,439,
286,447,
315,453,
329,459,
286,463,
265,474,
295,483,
325,491,
344,502,
310,513,
283,523,
312,533,
351,545,
373,554,
345,566,
316,574,
341,583,
380,593,
406,601,
383,607,
346,615,
371,622,
406,628,
431,632,
413,637,
373,639,
391,643,
427,647,
450,649,
437,652,
393,652,
401,653,
438,652,
460,651,
452,651,
401,647,
406,647,
435,645,
459,643,
452,641,
403,636,
397,634,
424,632,
448,630,
445,624,
392,622,
380,618,
408,616,
432,615,
435,609,
381,605,
363,600,
389,597,
413,593,
423,591,
375,585,
346,581,
369,576,
395,571,
406,566,
361,560,
326,556,
351,551,
374,551,
386,544,
348,540,
307,535,
323,531,
352,527,
368,522,
331,518,
289,515,
307,512,
336,512,
353,509,
328,508,
280,502,
295,500,
323,498,
347,494,
328,494,
281,492,
292,489,
321,488,
342,489,
326,487,
283,485,
282,482,
311,481,
337,481,
328,481,
280,479,
279,479,
309,480,
334,478,
334,478,
285,477,
270,476,
302,477,
328,476,
329,474,
284,475,
265,474,
296,475,
322,477,
335,479,
290,476,
264,476,
290,475,
320,474,
333,474,
291,472,
259,470,
287,471,
314,469,
331,468,
295,465,
262,464,
283,463,
312,464,
331,462,
303,460,
260,457,
280,457,
311,456,
330,456,
307,455,
262,453,
275,451,
304,452,
324,449,
305,449,
259,449,
265,447,
296,446,
318,444,
304,442,
255,441,
260,437,
291,437,
318,438,
310,436,
260,435,
259,432,
287,431,
314,429,
309,428,
265,426,
253,423,
281,422,
309,421,
311,420,
268,417,
247,415,
280,417,
309,416,
315,414,
272,415,
250,414,
277,413,
306,417,
323,419,
282,424,
250,426,
281,432,
312,437,
331,444,
297,448,
265,458,
290,466,
323,477,
347,488,
323,498,
286,511,
314,526,
350,540,
379,553,
358,565,
323,580,
342,591,
379,605,
405,612,
394,624,
353,632,
368,640,
401,649,
429,656,
421,661,
377,669,
384,673,
416,675,
441,680,
437,680,
391,679,
391,680,
422,681,
450,678,
450,675,
402,672,
393,670,
425,667,
450,662,
450,657,
406,655,
385,650,
417,647,
443,644,
451,640,
404,635,
379,631,
403,627,
433,623,
442,619,
395,612,
360,608,
386,603,
413,599,
425,596,
381,590,
347,587,
367,583,
393,578,
407,572,
371,570,
328,561,
346,554,
373,553,
389,546,
359,539,
310,535,
323,530,
351,525,
367,519,
347,516,
298,510,
306,506,
331,505,
355,501,
337,499,
289,497,
289,496,
320,496,
343,494,
335,495,
283,491,
278,493,
310,492,
334,493,
331,494,
284,493,
275,493,
306,492,
333,495,
335,496,
288,497,
272,498,
304,499,
331,501,
343,500,
299,501,
274,499,
304,499,
332,499,
344,495,
302,496,
275,494,
301,493,
330,490,
349,489,
308,482,
275,481,
298,477,
327,477,
344,474,
311,470,
268,467,
290,466,
319,463,
339,462,
309,460,
265,456,
278,454,
306,455,
326,451,
307,452,
258,449,
270,447,
302,447,
322,447,
309,446,
260,444,
263,444,
298,441,
320,439,
312,439,
264,436,
261,437,
290,436,
315,439,
313,436,
263,437,
255,437,
284,438,
311,438,
316,436,
269,437,
252,435,
282,436,
313,435,
318,433,
274,433,
253,430,
282,431,
310,431,
322,429,
281,427,
250,428,
275,428,
303,427,
320,426,
280,430,
251,427,
271,431,
304,431,
319,435,
285,438,
250,441,
269,446,
300,453,
322,462,
297,469,
256,478,
275,487,
310,501,
334,512,
319,523,
278,539,
297,552,
331,568,
363,580,
355,592,
311,604,
328,616,
366,631,
400,639,
395,650,
354,657,
360,666,
397,676,
427,684,
428,696,
384,707,
380,715,
413,718,
445,720,
447,720,
403,720,
389,719,
420,719,
450,717,
456,713,
414,705,
391,697,
418,694,
444,685,
453,676,
410,669,
379,663,
405,658,
428,651,
442,650,
404,646,
367,649,
387,650,
415,647,
431,640,
395,631,
352,624,
374,619,
395,611,
414,608,
381,598,
337,584,
351,574,
376,562,
391,549,
369,539,
320,527,
328,516,
351,507,
376,498,
356,491,
303,486,
306,482,
336,481,
359,480,
345,480,
295,476,
295,475,
322,475,
345,469,
341,465,
290,459,
281,456,
310,453,
335,450,
336,448,
291,446,
275,444,
307,445,
336,445,
341,443,
299,447,
275,448,
304,453,
333,455,
343,460,
303,461,
275,465,
302,468,
331,472,
347,475,
309,477,
278,478,
299,480,
329,483,
344,482,
312,484,
273,485,
295,486,
323,488,
341,487,
313,486,
271,484,
288,482,
316,483,
336,480,
315,478,
268,475,
281,474,
310,472,
335,471,
319,469,
269,466,
277,465,
305,464,
329,464,
319,460,
270,457,
267,458,
296,456,
320,454,
316,451,
264,450,
257,449,
285,448,
307,448,
309,447,
262,443,
251,442,
280,441,
307,441,
312,437,
267,437,
244,432,
274,434,
302,434,
315,431,
271,430,
245,428,
274,426,
302,426,
316,425,
276,421,
247,422,
268,422,
299,422,
318,424,
283,422,
249,426,
269,428,
298,430,
322,436,
296,444,
255,449,
274,457,
306,469,
333,479,
316,491,
278,502,
295,516,
330,530,
356,545,
345,559,
305,574,
318,586,
355,599,
385,615,
382,625,
340,637,
348,646,
386,656,
416,667,
418,675,
377,684,
374,690,
408,695,
438,699,
444,702,
398,704,
387,704,
420,707,
452,703,
454,700,
414,698,
391,692,
422,689,
453,685,
463,677,
420,673,
392,666,
418,661,
445,655,
457,652,
420,644,
383,639,
407,634,
430,631,
447,625,
409,620,
370,615,
390,612,
412,607,
432,603,
401,598,
354,592,
370,587,
394,583,
414,579,
387,573,
342,566,
346,561,
374,555,
390,548,
371,542,
320,536,
322,532,
350,523,
369,521,
356,511,
305,506,
300,499,
328,498,
349,491,
343,487,
290,482,
281,481,
311,480,
334,475,
334,473,
287,472,
272,471,
302,471,
329,472,
336,470,
289,471,
268,469,
296,472,
324,473,
337,473,
293,475,
270,477,
295,477,
323,479,
337,480,
298,479,
264,480,
291,481,
315,484,
338,482,
304,480,
268,483,
292,482,
319,483,
341,483,
313,480,
269,480,
288,478,
316,476,
339,477,
318,474,
273,471,
287,470,
316,470,
338,465,
322,462,
273,459,
280,457,
313,455,
335,453,
325,452,
275,450,
274,448,
302,445,
329,444,
324,441,
271,440,
269,438,
300,438,
323,436,
324,437,
271,434,
265,433,
290,433,
319,435,
319,434,
276,436,
254,433,
281,434,
312,437,
322,438,
278,436,
251,435,
279,434,
306,435,
320,436,
282,434,
249,433,
271,436,
304,438,
318,435,
284,435,
248,437,
269,436,
299,434,
321,434,
289,433,
244,434,
264,432,
294,431,
314,430,
288,429,
244,430,
260,431,
286,435,
312,434,
296,440,
250,445,
259,452,
293,461,
319,471,
312,483,
267,494,
274,506,
308,521,
340,534,
340,550,
297,566,
300,580,
337,596,
372,613,
378,628,
338,640,
337,654,
371,668,
406,680,
417,687,
380,695,
364,702,
405,711,
436,716,
450,718,
412,721,
391,722,
422,721,
452,720,
468,717,
431,711,
400,711,
428,709,
458,705,
476,702,
439,696,
403,695,
424,690,
451,688,
469,683,
436,677,
393,670,
409,665,
436,662,
456,656,
430,651,
383,648,
397,645,
421,641,
439,632,
419,629,
369,625,
373,621,
400,616,
422,611,
408,606,
353,600,
351,595,
380,591,
398,585,
389,581,
335,572,
327,565,
353,557,
376,553,
372,544,
319,535,
307,528,
334,523,
360,517,
361,509,
313,506,
293,504,
322,502,
349,501,
358,501,
313,496,
286,493,
312,493,
335,490,
349,488,
310,484,
276,485,
303,489,
330,495,
345,504,
310,510,
273,512,
296,513,
326,513,
344,512,
312,508,
270,503,
290,498,
318,493,
338,487,
314,481,
268,475,
287,468,
317,460,
336,456,
318,453,
271,449,
281,444,
312,440,
335,438,
322,434,
273,430,
275,429,
304,427,
329,426,
321,424,
272,423,
269,424,
297,424,
324,424,
322,425,
275,425,
264,427,
295,431,
320,432,
326,432,
279,433,
260,434,
288,438,
319,440,
327,440,
284,441,
258,442,
285,443,
312,444,
325,445,
281,446,
250,452,
278,456,
307,453,
319,449,
285,442,
249,438,
272,436,
299,431,
319,430,
288,426,
247,424,
266,421,
295,423,
314,422,
288,421,
247,420,
261,419,
288,421,
312,418,
293,419,
247,416,
258,415,
289,416,
307,415,
298,417,
249,415,
253,417,
284,419,
309,424,
303,427,
257,432,
254,437,
287,445,
314,454,
315,465,
271,475,
266,487,
300,501,
330,515,
343,531,
333,548,
339,564,
361,584,
380,601,
390,614,
377,623,
372,634,
388,646,
406,657,
410,671,
389,685,
366,699,
378,712,
394,721,
406,725,
387,725,
365,725,
374,724,
396,725,
412,721,
398,718,
372,712,
382,709,
406,705,
427,702,
405,700,
365,697,
379,690,
414,682,
435,666,
420,655,
375,643,
384,628,
413,618,
438,605,
425,591,
378,579,
382,569,
406,559,
437,552,
426,545,
378,540,
375,532,
397,530,
422,528,
419,522,
367,521,
354,518,
382,519,
403,517,
402,520,
354,527,
331,533,
359,539,
383,542,
390,543,
339,541,
314,538,
337,537,
364,537,
370,536,
328,530,
293,521,
317,513,
343,504,
357,494,
317,486,
282,479,
304,473,
333,472,
349,468,
314,468,
272,468,
292,471,
319,472,
338,469,
312,465,
271,460,
284,457,
311,452,
331,445,
312,443,
271,441,
282,440,
312,435,
336,435,
321,434,
275,434,
280,434,
315,434,
341,440,
331,442,
284,445,
284,447,
313,451,
336,454,
335,458,
284,461,
273,463,
303,469,
327,479,
327,488,
281,492,
261,502,
293,512,
319,514,
326,515,
281,516,
257,513,
281,516,
311,516,
324,512,
280,507,
255,507,
278,505,
305,504,
322,504,
280,498,
250,488,
274,477,
305,468,
322,461,
291,454,
250,450,
275,448,
305,442,
325,440,
301,434,
257,428,
275,421,
305,414,
322,407,
304,402,
257,396,
266,392,
297,392,
320,394,
307,397,
257,393,
265,394,
294,397,
315,399,
309,405,
261,410,
261,418,
293,428,
319,441,
322,451,
276,464,
273,479,
308,493,
340,508,
347,523,
308,542,
295,559,
332,576,
367,590,
381,601,
342,611,
328,615,
362,624,
397,632,
414,639,
379,646,
355,653,
387,662,
419,669,
438,678,
406,685,
374,688,
400,688,
433,683,
453,680,
424,672,
386,666,
410,662,
442,655,
462,651,
431,647,
393,644,
410,639,
440,638,
457,639,
432,639,
388,633,
400,628,
427,622,
448,613,
433,607,
379,598,
384,597,
411,593,
431,590,
420,589,
367,585,
361,581,
388,580,
408,577,
401,575,
351,574,
339,571,
365,567,
388,558,
386,551,
338,538,
317,529,
346,522,
371,514,
376,508,
332,503,
306,501,
328,506,
357,504,
364,501,
320,493,
288,486,
314,480,
340,475,
354,472,
316,470,
280,471,
302,472,
329,474,
347,477,
313,474,
272,472,
294,467,
322,463,
342,463,
316,463,
272,463,
289,464,
319,468,
338,469,
321,474,
274,478,
286,481,
314,487,
339,492,
322,497,
276,495,
281,491,
313,488,
334,481,
327,474,
277,463,
278,460,
305,452,
329,449,
326,447,
279,446,
269,444,
300,447,
331,450,
326,455,
285,457,
269,454,
300,452,
327,449,
332,444,
287,444,
264,441,
292,441,
320,440,
329,438,
290,435,
259,438,
288,442,
314,444,
326,448,
290,449,
254,446,
280,448,
309,451,
324,451,
291,445,
247,439,
270,434,
299,431,
317,426,
290,425,
246,424,
266,423,
296,423,
314,425,
292,424,
247,424,
259,425,
288,424,
309,426,
295,424,
247,425,
252,429,
282,432,
308,433,
300,433,
253,434,
250,434,
284,435,
306,434,
303,438,
260,444,
256,448,
286,454,
316,463,
322,474,
279,482,
266,492,
301,505,
337,517,
345,526,
311,535,
294,547,
331,560,
368,573,
387,583,
353,593,
332,605,
365,618,
402,634,
424,646,
394,660,
365,669,
396,677,
433,686,
459,692,
427,696,
393,700,
419,701,
450,702,
471,706,
447,708,
406,704,
424,701,
454,701,
474,695,
453,689,
407,680,
420,673,
450,669,
471,664,
453,660,
403,654,
408,646,
438,641,
458,635,
447,627,
397,617,
394,613,
424,609,
450,607,
441,603,
390,594,
380,588,
406,581,
432,576,
429,573,
381,570,
359,567,
387,561,
412,557,
416,549,
366,543,
340,537,
364,534,
387,527,
398,522,
348,516,
319,512,
343,502,
363,495,
380,493,
335,488,
300,483,
320,480,
345,480,
363,477,
326,477,
285,477,
305,476,
333,480,
349,479,
321,479,
278,478,
292,479,
321,478,
342,477,
320,476,
276,476,
287,475,
321,477,
342,472,
329,472,
281,474,
289,477,
319,478,
342,482,
336,486,
287,481,
286,475,
316,473,
340,476,
336,475,
289,472,
281,472,
311,474,
334,477,
338,477,
288,483,
273,483,
303,480,
331,479,
333,478,
292,483,
267,477,
298,476,
328,478,
341,476,
293,470,
269,467,
293,464,
323,460,
338,454,
297,446,
262,443,
287,441,
316,440,
333,439,
299,434,
264,435,
281,436,
310,437,
328,435,
298,433,
257,433,
274,433,
306,430,
325,426,
305,428,
260,426,
273,427,
304,432,
324,430,
306,430,
258,429,
270,427,
299,428,
320,427,
311,426,
260,423,
260,420,
289,421,
314,423,
309,420,
261,421,
253,422,
284,424,
309,425,
313,428,
263,428,
250,428,
278,431,
310,435,
319,444,
278,455,
256,462,
293,476,
322,484,
343,493,
307,500,
286,515,
321,523,
359,538,
379,550,
351,564,
325,574,
358,588,
395,601,
422,611,
395,617,
362,627,
388,630,
426,630,
452,635,
425,638,
391,636,
415,638,
450,634,
472,626,
455,613,
410,604,
424,591,
455,582,
478,575,
462,569,
413,565,
420,574,
444,582,
470,590,
457,597,
409,601,
407,606,
431,615,
458,620,
453,622,
402,630,
394,633,
420,635,
446,641,
441,638,
393,637,
375,637,
403,637,
425,635,
428,634,
383,632,
354,628,
384,627,
404,622,
413,615,
371,610,
343,603,
366,597,
390,591,
400,581,
363,576,
323,563,
347,555,
371,545,
388,536,
348,531,
308,525,
323,522,
351,515,
368,509,
335,507,
288,503,
304,497,
330,493,
348,490,
328,487,
282,478,
296,469,
323,461,
344,457,
323,453,
278,447,
287,443,
320,439,
341,440,
331,436,
284,434,
286,432,
317,435,
342,437,
338,439,
291,439,
286,442,
316,445,
342,454,
346,459,
298,458,
284,461,
315,462,
342,462,
347,465,
299,465,
278,461,
310,465,
337,463,
348,457,
301,451,
276,444,
305,439,
332,437,
342,436,
300,442,
270,443,
294,447,
319,450,
339,457,
303,462,
266,467,
289,470,
317,470,
338,476,
304,478,
262,479,
279,478,
309,480,
332,479,
309,479,
263,477,
276,474,
306,472,
327,468,
309,467,
263,466,
266,465,
297,466,
319,463,
304,462,
258,455,
259,447,
290,438,
313,427,
310,421,
261,417,
253,410,
284,413,
310,413,
314,419,
267,424,
254,431,
285,439,
319,448,
322,454,
280,464,
264,470,
298,484,
333,502,
345,520,
310,532,
291,547,
327,562,
361,576,
384,595,
350,608,
327,623,
361,636,
397,644,
423,655,
394,660,
366,664,
396,665,
430,670,
454,668,
431,664,
393,664,
416,662,
451,662,
474,662,
451,665,
411,663,
428,660,
458,656,
483,652,
466,646,
418,639,
429,630,
456,618,
480,605,
468,595,
417,585,
418,583,
448,576,
467,568,
462,558,
413,548,
406,540,
433,532,
456,521,
456,513,
402,501,
391,494,
420,487,
446,482,
446,477,
400,481,
373,486,
403,497,
426,511,
431,521,
385,531,
355,536,
379,536,
401,536,
411,534,
365,540,
328,548,
351,554,
376,555,
386,554,
344,551,
307,546,
326,538,
351,528,
366,521,
333,517,
291,512,
309,512,
333,511,
355,506,
332,503,
285,504,
299,504,
325,498,
349,490,
331,484,
285,476,
290,473,
323,475,
345,476,
332,478,
283,479,
285,480,
315,481,
341,480,
336,479,
284,476,
282,469,
314,465,
339,462,
337,458,
288,456,
281,455,
310,455,
337,453,
336,447,
294,445,
271,440,
304,443,
330,444,
339,444,
295,443,
266,447,
290,448,
319,450,
334,451,
291,451,
259,451,
285,451,
314,448,
331,446,
293,443,
257,439,
279,439,
308,440,
327,442,
295,440,
253,438,
271,437,
300,437,
321,435,
298,433,
250,429,
266,430,
293,431,
317,428,
298,430,
250,429,
261,431,
290,432,
315,430,
303,427,
254,427,
256,426,
288,423,
312,418,
304,417,
256,416,
252,410,
280,406,
309,402,
309,396,
258,394,
247,392,
279,395,
303,398,
310,397,
265,396,
245,391,
275,387,
303,390,
316,388,
270,388,
246,388,
271,393,
303,398,
319,409,
279,421,
250,435,
283,444,
315,456,
336,468,
307,483,
275,498,
306,512,
343,526,
368,539,
345,555,
311,567,
338,578,
377,586,
407,594,
389,601,
354,606,
376,618,
415,630,
443,637,
433,649,
394,656,
407,665,
443,670,
471,671,
463,671,
415,673,
425,674,
460,676,
488,674,
486,671,
437,668,
439,666,
467,665,
495,666,
498,665,
445,662,
436,656,
465,648,
489,641,
493,635,
445,635,
423,629,
453,626,
476,621,
486,612,
436,603,
412,603,
433,604,
463,601,
472,596,
428,592,
395,587,
413,581,
441,575,
454,571,
413,567,
373,566,
392,559,
415,550,
430,543,
394,534,
349,523,
364,518,
390,509,
405,507,
375,502,
332,495,
338,491,
365,486,
383,478,
359,480,
314,475,
316,470,
346,463,
365,457,
350,452,
298,450,
298,455,
325,464,
348,465,
340,466,
286,464,
283,465,
313,470,
338,468,
333,461,
288,451,
276,444,
306,438,
335,435,
338,433,
289,440,
272,446,
302,455,
333,464,
340,469,
297,477,
274,483,
304,487,
334,492,
348,494,
305,494,
274,498,
300,497,
329,491,
346,489,
310,488,
273,480,
296,470,
325,461,
343,453,
308,450,
267,444,
288,433,
319,419,
335,403,
310,389,
261,375,
279,365,
304,355,
328,347,
307,341,
263,339,
270,336,
303,338,
326,338,
312,339,
258,340,
264,345,
295,348,
318,356,
311,364,
261,373,
258,388,
287,406,
314,416,
309,421,
261,424,
250,424,
278,427,
307,429,
310,429,
266,433,
247,434,
278,441,
304,449,
314,453,
269,457,
245,458,
272,460,
303,464,
317,471,
277,474,
247,481,
274,487,
300,490,
317,493,
281,489,
248,482,
268,477,
299,472,
318,472,
286,467,
248,464,
267,466,
296,470,
322,474,
294,478,
253,482,
271,490,
305,494,
329,497,
316,502,
274,509,
291,521,
328,532,
358,546,
352,554,
310,566,
323,576,
362,578,
395,577,
391,577,
354,576,
360,577,
398,579,
431,580,
436,581,
395,586,
390,592,
427,597,
457,601,
464,596,
425,595,
407,590,
442,589,
472,588,
482,588,
438,587,
416,584,
444,586,
474,587,
484,591,
441,597,
409,607,
437,611,
464,607,
479,603,
439,595,
404,590,
424,586,
451,582,
468,576,
432,572,
390,566,
408,562,
435,561,
451,558,
423,557,
377,556,
389,563,
415,565,
431,566,
410,569,
361,570,
367,573,
393,571,
414,567,
391,560,
342,554,
345,550,
368,548,
387,544,
374,541,
322,544,
318,548,
342,552,
365,555,
356,556,
304,557,
296,555,
322,553,
351,548,
351,541,
305,536,
283,534,
313,539,
339,536,
348,530,
300,526,
276,522,
303,524,
331,526,
343,522,
300,523,
270,524,
298,524,
327,525,
342,523,
305,521,
270,515,
294,511,
325,502,
343,492,
309,483,
270,476,
291,469,
317,465,
343,466,
310,463,
269,458,
286,448,
313,436,
333,423,
314,413,
268,403,
277,397,
305,400,
328,407,
313,416,
263,424,
268,433,
298,439,
323,445,
313,447,
264,448,
262,449,
294,452,
318,454,
313,453,
267,456,
257,459,
288,461,
312,463,
316,460,
268,455,
253,450,
285,451,
315,451,
321,452,
274,455,
253,454,
282,456,
310,462,
324,461,
281,459,
253,457,
279,452,
310,451,
326,450,
286,452,
252,447,
271,437,
299,429,
320,418,
287,409,
247,402,
264,405,
296,406,
318,408,
289,412,
249,420,
263,429,
295,430,
312,433,
295,436,
250,438,
260,445,
291,452,
319,459,
308,468,
264,479,
273,488,
309,500,
341,515,
339,530,
296,545,
302,562,
340,576,
372,583,
379,585,
336,585,
337,583,
375,583,
410,583,
419,583,
380,583,
369,581,
407,583,
439,584,
452,588,
415,589,
396,589,
427,594,
460,594,
476,592,
435,587,
407,584,
435,578,
464,573,
482,576,
442,582,
410,586,
434,591,
460,598,
480,600,
444,605,
400,603,
419,606,
444,606,
462,606,
432,602,
388,594,
401,585,
429,574,
447,565,
426,560,
375,557,
384,557,
408,553,
430,551,
412,549,
359,538,
360,527,
385,512,
408,496,
396,481,
342,465,
338,453,
366,442,
384,431,
379,421,
326,412,
317,402,
341,398,
362,392,
361,388,
314,386,
295,383,
324,384,
348,384,
355,385,
308,388,
286,392,
313,399,
340,404,
351,410,
306,413,
279,420,
302,425,
331,432,
345,438,
307,444,
272,449,
295,454,
322,458,
342,462,
307,464,
268,466,
289,469,
318,471,
336,472,
308,473,
270,473,
285,475,
312,477,
334,477,
314,477,
270,477,
279,480,
308,477,
331,477,
313,475,
262,475,
272,471,
303,467,
327,469,
317,469,
265,468,
266,468,
297,468,
324,467,
319,465,
271,464,
264,463,
290,462,
318,461,
319,459,
273,455,
256,455,
289,454,
315,454,
319,450,
276,450,
255,447,
283,447,
313,443,
326,438,
277,433,
252,432,
277,430,
304,427,
319,426,
279,422,
247,420,
271,419,
301,419,
315,417,
283,417,
243,415,
260,416,
293,414,
310,414,
284,413,
242,411,
257,412,
288,415,
307,413,
288,415,
245,415,
257,418,
289,421,
313,425,
297,425,
247,426,
254,428,
282,431,
307,433,
300,433,
253,431,
253,433,
282,433,
307,434,
306,433,
256,431,
250,430,
281,432,
309,432,
307,432,
258,431,
245,428,
273,425,
303,425,
311,425,
268,426,
247,424,
275,426,
303,425,
316,427,
275,426,
247,426,
275,428,
304,428,
319,429,
281,430,
250,433,
273,439,
304,444,
325,451,
293,456,
258,465,
282,475,
317,486,
340,495,
319,507,
282,518,
306,531,
343,546,
369,556,
354,569,
319,582,
337,596,
380,609,
410,619,
402,628,
363,639,
377,647,
412,653,
443,661,
439,667,
400,669,
407,675,
439,676,
467,679,
470,681,
423,677,
420,678,
452,676,
478,677,
484,674,
437,673,
421,670,
453,669,
484,666,
485,663,
442,662,
415,656,
445,655,
470,650,
477,649,
432,644,
401,640,
425,634,
449,631,
461,626,
418,621,
383,616,
402,612,
430,608,
443,605,
405,600,
362,598,
380,591,
406,586,
421,582,
388,577,
344,571,
360,565,
383,562,
398,555,
375,551,
324,543,
331,540,
360,534,
379,532,
363,528,
308,525,
314,521,
341,517,
361,515,
349,513,
298,510,
296,509,
325,508,
347,506,
344,505,
291,503,
281,503,
311,503,
339,504,
333,504,
288,503,
273,502,
303,500,
330,501,
335,499,
289,497,
266,493,
300,495,
329,493,
338,492,
295,492,
269,489,
295,487,
322,488,
336,487,
299,485,
265,481,
290,481,
320,480,
337,478,
304,475,
266,474,
287,472,
317,471,
337,469,
306,469,
265,468,
286,469,
309,471,
332,473,
312,471,
268,472,
279,469,
308,467,
330,466,
311,464,
261,461,
269,460,
300,457,
321,456,
309,454,
261,450,
260,452,
288,449,
311,448,
308,445,
260,444,
252,444,
279,442,
309,444,
306,442,
258,439,
245,436,
278,437,
306,437,
309,433,
265,435,
241,431,
271,433,
298,433,
310,434,
267,430,
241,430,
267,428,
293,427,
309,426,
270,425,
239,423,
266,422,
294,423,
310,424,
278,424,
239,424,
263,423,
292,424,
311,424,
283,423,
243,423,
262,426,
289,425,
311,426,
291,429,
248,429,
258,428,
291,430,
313,429,
297,430,
247,429,
256,428,
286,431,
311,428,
299,428,
252,427,
252,431,
284,431,
309,436,
309,439,
258,441,
254,445,
284,452,
318,460,
319,468,
272,476,
264,486,
300,496,
332,509,
337,518,
302,532,
284,543,
319,558,
356,572,
375,586,
338,597,
318,611,
353,621,
386,631,
408,640,
373,649,
346,654,
379,662,
409,668,
433,672,
401,676,
370,678,
397,679,
427,683,
451,683,
426,683,
384,680,
406,678,
438,678,
461,676,
439,672,
392,668,
410,666,
440,661,
459,660,
443,656,
394,653,
402,647,
428,643,
451,640,
441,634,
388,631,
387,627,
416,624,
438,620,
433,614,
381,610,
374,606,
402,603,
424,598,
421,594,
371,587,
353,582,
380,577,
401,571,
403,566,
357,561,
327,554,
354,551,
380,546,
385,541,
336,536,
307,531,
332,526,
356,520,
367,515,
322,511,
288,510,
308,504,
338,504,
354,501,
317,497,
278,497,
297,495,
326,497,
343,493,
314,492,
270,492,
291,493,
319,492,
338,491,
316,492,
271,491,
284,492,
313,493,
337,493,
320,494,
273,493,
280,495,
310,496,
331,497,
321,498,
275,495,
274,498,
305,498,
327,496,
323,494,
276,493,
269,492,
297,489,
326,489,
326,488,
281,488,
265,485,
294,483,
324,482,
328,480,
282,479,
261,476,
291,476,
321,476,
331,474,
287,472,
263,472,
291,471,
315,469,
331,470,
291,466,
259,464,
283,461,
311,461,
329,461,
295,458,
257,455,
279,455,
307,453,
323,450,
291,449,
250,448,
269,447,
297,445,
316,445,
295,445,
251,444,
263,441,
293,442,
313,441,
298,441,
250,439,
258,439,
289,436,
311,439,
301,436,
252,435,
252,432,
281,430,
306,431,
301,429,
253,428,
248,427,
278,424,
302,427,
306,424,
256,423,
244,423,
276,425,
307,425,
310,426,
269,427,
247,429,
279,434,
308,440,
319,445,
279,453,
256,460,
286,470,
316,479,
336,490,
301,499,
274,513,
306,527,
341,541,
361,555,
337,568,
308,584,
333,599,
371,611,
394,626,
375,635,
337,648,
361,657,
399,669,
423,677,
406,685,
369,689,
383,694,
421,698,
445,702,
433,702,
389,704,
403,704,
432,702,
456,702,
447,701,
400,699,
400,696,
433,695,
457,693,
451,688,
403,685,
396,680,
426,676,
448,671,
447,666,
394,661,
381,659,
411,659,
438,659,
433,661,
389,671,
363,680,
389,691,
415,697,
424,705,
374,705,
347,704,
370,699,
395,698,
407,700,
364,699,
328,692,
353,688,
376,677,
389,668,
352,656,
311,645,
327,634,
356,622,
376,608,
341,593,
296,580,
311,570,
334,558,
356,547,
329,536,
281,527,
295,517,
323,510,
343,501,
326,495,
278,486,
284,482,
313,478,
336,476,
324,474,
272,469,
276,468,
306,465,
330,463,
326,464,
275,460,
269,461,
299,462,
324,460,
325,454,
277,449,
264,446,
294,448,
323,448,
327,454,
278,452,
260,441,
291,435,
317,427,
331,420,
284,417,
260,409,
288,409,
315,417,
329,420,
289,422,
255,423,
279,430,
310,435,
326,440,
293,441,
255,448,
279,454,
308,458,
330,459,
299,460,
258,464,
276,468,
307,467,
324,469,
303,465,
257,467,
272,468,
299,469,
321,468,
302,469,
256,467,
265,462,
295,460,
317,457,
305,455,
256,455,
261,454,
288,454,
313,454,
309,454,
259,449,
255,447,
285,446,
312,446,
311,445,
267,442,
253,439,
283,442,
310,437,
314,433,
269,429,
246,425,
277,428,
303,430,
314,424,
271,417,
243,414,
271,408,
300,405,
311,406,
272,407,
239,414,
264,417,
292,421,
312,423,
280,422,
243,419,
266,412,
295,406,
314,399,
281,391,
244,384,
261,379,
294,378,
313,383,
290,388,
245,395,
261,401,
293,404,
313,408,
298,414,
251,421,
260,428,
294,432,
322,437,
310,442,
269,452,
276,460,
308,473,
337,489,
335,506,
295,529,
295,551,
333,574,
367,593,
373,611,
329,633,
329,649,
363,661,
397,667,
406,671,
367,673,
352,673,
388,675,
419,677,
435,680,
394,681,
376,682,
404,686,
432,690,
452,694,
409,698,
385,697,
408,696,
440,697,
455,698,
423,699,
387,700,
411,703,
434,702,
455,699,
423,696,
382,690,
402,687,
425,679,
449,674,
422,668,
376,663,
385,655,
415,649,
434,643,
414,638,
368,636,
375,627,
402,619,
423,611,
412,605,
362,601,
359,596,
383,590,
406,582,
398,573,
345,565,
341,558,
365,554,
384,544,
380,532,
332,519,
315,503,
341,493,
364,480,
363,467,
315,459,
289,447,
318,443,
342,437,
350,432,
300,428,
276,426,
302,428,
324,428,
335,430,
297,433,
262,434,
284,434,
317,440,
332,444,
297,452,
261,462,
283,471,
314,479,
335,483,
303,485,
267,488,
284,492,
313,494,
334,498,
310,506,
264,512,
279,517,
312,521,
335,519,
318,523,
271,529,
280,531,
313,531,
336,529,
326,525,
279,524,
281,526,
310,522,
335,516,
329,507,
280,499,
277,489,
303,484,
330,480,
329,479,
282,477,
269,474,
298,475,
326,477,
329,478,
282,478,
262,472,
292,467,
319,462,
328,455,
284,449,
259,443,
285,440,
314,441,
324,442,
283,437,
250,436,
278,437,
302,440,
322,442,
282,441,
247,439,
267,434,
296,436,
314,435,
286,438,
244,437,
265,434,
292,432,
311,430,
288,427,
245,424,
260,421,
289,422,
312,417,
297,423,
249,422,
260,421,
292,423,
314,424,
304,422,
260,423,
261,426,
290,426,
316,421,
311,417,
263,413,
260,412,
291,415,
317,417,
319,420,
268,425,
257,431,
290,434,
318,438,
323,446,
283,455,
262,465,
297,476,
328,487,
340,503,
301,518,
283,532,
313,546,
349,557,
367,567,
335,582,
309,598,
342,612,
376,621,
401,630,
365,640,
339,652,
364,665,
398,680,
423,690,
400,697,
361,703,
386,708,
415,710,
441,711,
421,714,
377,709,
392,706,
420,704,
443,698,
424,696,
381,689,
389,679,
419,674,
441,669,
430,659,
381,645,
382,635,
410,624,
432,612,
424,603,
377,593,
370,590,
397,588,
419,581,
419,573,
369,560,
354,551,
381,544,
406,540,
407,531,
361,525,
336,518,
365,520,
389,520,
396,517,
350,509,
320,506,
347,501,
371,493,
378,490,
336,480,
301,479,
323,474,
350,472,
363,468,
323,465,
286,465,
303,462,
331,461,
346,459,
314,461,
271,462,
287,464,
318,470,
337,479,
309,489,
263,496,
279,506,
309,519,
330,525,
312,536,
263,541,
274,545,
303,550,
330,551,
318,549,
270,544,
274,540,
306,540,
330,539,
324,539,
277,534,
273,529,
304,526,
333,525,
331,524,
283,523,
272,519,
304,517,
328,512,
334,506,
290,496,
267,490,
298,488,
323,487,
335,489,
290,488,
266,485,
293,479,
320,480,
333,478,
292,475,
260,472,
284,469,
317,467,
331,466,
297,466,
261,464,
284,461,
313,455,
333,447,
301,444,
261,440,
282,433,
313,432,
332,427,
306,423,
263,420,
274,417,
306,417,
326,412,
306,411,
262,409,
270,406,
302,407,
322,409,
310,410,
263,414,
264,416,
291,412,
316,407,
309,398,
262,390,
256,385,
287,381,
310,375,
312,370,
263,364,
255,360,
284,356,
309,355,
314,352,
267,348,
248,350,
280,352,
305,355,
317,360,
271,364,
249,371,
278,381,
305,391,
321,400,
286,410,
256,425,
287,440,
319,457,
342,474,
309,490,
285,507,
313,524,
348,543,
376,559,
349,575,
317,590,
342,604,
378,618,
404,629,
386,642,
350,652,
369,661,
405,670,
430,674,
416,680,
376,682,
386,682,
421,684,
448,684,
433,685,
389,680,
396,683,
423,686,
450,682,
445,678,
396,675,
395,671,
424,669,
448,667,
447,663,
397,658,
386,651,
412,645,
441,636,
444,627,
396,618,
376,611,
405,606,
431,600,
435,592,
388,586,
360,578,
383,574,
407,568,
419,561,
376,553,
341,548,
364,542,
389,539,
401,535,
360,530,
323,525,
341,521,
367,522,
383,520,
346,518,
303,520,
320,516,
346,517,
364,516,
334,516,
291,514,
306,515,
328,514,
350,514,
332,514,
286,517,
294,513,
324,510,
347,510,
334,506,
284,504,
287,498,
311,496,
342,494,
332,493,
282,491,
280,490,
306,487,
337,485,
330,480,
283,479,
276,474,
304,471,
330,468,
333,465,
287,462,
269,461,
301,461,
323,459,
336,459,
288,457,
269,453,
298,454,
326,453,
339,453,
297,454,
269,453,
296,453,
323,455,
344,457,
303,455,
269,455,
292,456,
323,456,
340,455,
307,456,
268,456,
290,454,
315,451,
339,452,
310,451,
267,450,
280,449,
312,450,
330,449,
312,448,
263,446,
276,446,
303,444,
324,443,
310,442,
261,440,
266,439,
295,435,
318,439,
308,436,
260,435,
256,435,
287,434,
310,434,
307,433,
256,433,
250,430,
280,430,
304,431,
309,429,
263,429,
247,430,
278,429,
304,430,
316,432,
273,436,
250,434,
277,439,
305,441,
321,442,
278,442,
253,445,
273,447,
307,449,
323,449,
287,450,
250,449,
274,449,
303,449,
319,452,
289,452,
250,456,
271,455,
300,461,
324,466,
301,472,
260,478,
277,488,
309,496,
337,506,
325,518,
286,530,
303,542,
337,558,
367,570,
361,585,
319,596,
331,610,
368,623,
399,634,
396,644,
358,653,
361,660,
396,669,
430,672,
427,676,
389,679,
383,678,
418,679,
448,677,
452,678,
412,676,
396,673,
428,670,
455,667,
466,663,
423,659,
400,651,
428,649,
454,647,
466,645,
422,643,
394,640,
417,636,
444,630,
456,621,
418,612,
379,602,
401,595,
428,589,
442,583,
409,579,
367,577,
386,573,
411,567,
428,562,
398,558,
355,555,
367,553,
395,549,
409,543,
387,539,
341,534,
349,529,
374,527,
396,525,
375,523,
325,518,
331,512,
355,509,
373,502,
363,498,
310,496,
309,494,
334,492,
358,493,
354,492,
302,491,
294,492,
318,489,
344,489,
343,487,
296,486,
278,482,
307,481,
336,480,
343,477,
299,476,
277,477,
305,480,
334,482,
343,484,
301,481,
273,481,
297,480,
328,479,
343,479,
301,480,
271,478,
293,478,
324,478,
341,481,
309,481,
271,482,
293,483,
322,485,
342,486,
313,488,
273,489,
290,489,
321,487,
339,485,
322,483,
275,480,
290,477,
318,477,
340,474,
325,471,
276,469,
283,467,
311,467,
339,463,
328,462,
281,457,
277,455,
308,454,
333,456,
326,452,
278,450,
268,448,
296,448,
321,448,
323,446,
273,442,
259,439,
289,434,
316,435,
324,429,
281,428,
257,424,
286,425,
314,424,
325,419,
285,415,
254,414,
280,414,
307,413,
322,413,
282,414,
250,414,
272,418,
301,419,
319,421,
287,421,
249,424,
270,425,
299,425,
321,426,
292,428,
251,433,
270,436,
302,441,
324,448,
306,456,
265,463,
280,472,
314,484,
344,492,
335,503,
293,513,
304,524,
340,539,
371,549,
370,561,
325,571,
333,583,
367,593,
399,603,
403,612,
360,620,
359,625,
395,631,
427,638,
434,642,
391,644,
382,647,
416,651,
444,651,
457,652,
416,653,
394,648,
428,648,
455,646,
469,645,
425,640,
402,637,
427,634,
455,631,
470,629,
431,624,
396,620,
419,620,
446,618,
462,613,
426,612,
386,608,
402,606,
427,601,
449,597,
418,592,
371,586,
390,583,
413,577,
431,570,
409,564,
359,559,
365,554,
392,548,
409,544,
389,540,
337,534,
341,527,
363,524,
382,517,
370,514,
317,506,
313,503,
336,500,
361,497,
353,492,
303,488,
294,485,
323,484,
346,482,
347,481,
298,479,
281,477,
312,477,
337,476,
346,476,
299,473,
272,471,
304,473,
333,473,
342,474,
301,472,
273,472,
301,472,
330,474,
348,473,
304,470,
273,472,
300,475,
326,476,
345,476,
312,479,
273,478,
295,480,
326,480,
345,480,
319,477,
278,479,
292,479,
325,480,
343,478,
323,477,
274,474,
288,473,
317,474,
342,472,
327,470,
279,466,
287,465,
317,461,
342,463,
332,460,
281,457,
283,456,
312,455,
336,455,
333,454,
285,453,
276,453,
304,455,
332,454,
329,454,
284,452,
269,450,
299,451,
323,450,
328,448,
282,447,
259,446,
289,449,
317,450,
324,451,
281,452,
257,451,
284,450,
310,448,
323,445,
284,443,
252,442,
276,443,
304,442,
321,439,
286,437,
249,435,
269,432,
300,429,
318,425,
290,422,
250,418,
268,418,
294,416,
316,416,
297,417,
253,418,
268,423,
298,427,
323,431,
311,437,
267,445,
276,453,
309,464,
339,474,
335,485,
291,496,
300,509,
335,522,
368,534,
373,545,
332,558,
333,568,
368,580,
402,588,
416,600,
375,607,
368,617,
404,625,
437,632,
449,638,
412,645,
394,648,
429,655,
460,657,
474,660,
431,660,
413,661,
441,661,
474,660,
492,659,
448,659,
421,655,
447,655,
472,653,
490,648,
456,646,
417,644,
438,640,
465,636,
483,632,
451,627,
408,622,
422,618,
449,616,
466,610,
442,605,
392,602,
402,599,
428,595,
448,588,
428,584,
378,581,
381,575,
411,570,
429,566,
414,561,
364,557,
362,554,
387,550,
411,546,
403,542,
353,538,
342,534,
369,528,
392,525,
389,521,
339,515,
320,510,
348,508,
370,503,
373,501,
326,496,
300,492,
327,493,
352,493,
358,491,
313,485,
287,485,
313,482,
337,484,
354,482,
311,477,
278,477,
304,476,
331,476,
353,476,
315,476,
277,476,
298,476,
327,476,
347,475,
321,477,
278,474,
295,476,
324,476,
345,474,
324,474,
279,473,
290,472,
321,471,
345,468,
325,469,
281,467,
286,468,
317,468,
341,467,
330,468,
283,465,
283,464,
315,462,
338,462,
334,460,
284,457,
281,454,
303,453,
335,451,
335,449,
286,446,
272,445,
302,444,
326,445,
332,441,
287,439,
265,436,
292,434,
325,436,
338,435,
293,434,
266,434,
290,433,
320,434,
334,435,
294,437,
263,436,
287,438,
316,436,
333,438,
300,438,
260,438,
281,437,
309,436,
328,437,
300,436,
257,434,
272,432,
300,431,
322,430,
298,429,
254,427,
268,426,
292,427,
317,424,
300,421,
254,420,
260,419,
289,422,
312,421,
302,422,
250,423,
255,428,
284,432,
308,434,
303,433,
255,433,
247,435,
278,437,
304,442,
307,447,
257,452,
250,461,
282,471,
313,482,
322,490,
285,503,
268,511,
306,524,
340,536,
359,547,
322,556,
308,565,
343,573,
379,582,
400,588,
371,593,
349,600,
382,606,
418,612,
442,617,
415,621,
388,624,
413,626,
448,632,
470,633,
444,632,
408,633,
429,633,
459,635,
484,634,
463,635,
421,636,
436,639,
465,640,
486,638,
470,640,
423,640,
430,639,
457,638,
482,638,
469,634,
419,632,
421,630,
446,629,
472,629,
464,622,
414,617,
407,616,
434,614,
458,609,
456,605,
405,597,
389,591,
416,587,
439,581,
442,574,
395,567,
368,559,
396,557,
420,551,
423,548,
381,538,
349,535,
371,531,
396,526,
404,520,
361,517,
326,510,
348,508,
373,505,
384,501,
345,497,
308,494,
325,491,
354,492,
373,489,
339,488,
297,486,
314,486,
341,484,
360,484,
335,484,
290,483,
303,483,
329,485,
354,480,
336,482,
287,479,
294,480,
322,478,
347,478,
337,480,
289,479,
289,478,
318,480,
345,478,
336,478,
286,475,
286,478,
314,473,
335,477,
338,476,
290,476,
279,475,
310,476,
335,477,
337,473,
295,471,
274,469,
304,468,
333,466,
343,465,
300,466,
273,465,
300,465,
328,464,
338,460,
298,459,
265,454,
293,454,
320,453,
336,451,
298,447,
264,445,
282,445,
310,443,
331,444,
300,440,
260,438,
276,437,
305,439,
323,439,
300,441,
256,441,
270,443,
300,444,
320,445,
300,447,
254,447,
264,448,
292,448,
317,449,
304,447,
256,444,
258,445,
287,442,
316,443,
307,441,
262,441,
258,441,
287,442,
314,442,
311,444,
263,442,
254,440,
284,441,
311,440,
312,439,
269,441,
248,442,
281,444,
307,444,
317,446,
274,448,
248,451,
276,450,
305,455,
321,459,
280,466,
257,470,
286,479,
320,487,
338,492,
307,498,
279,507,
312,519,
346,532,
372,545,
348,558,
316,571,
344,580,
383,589,
411,598,
394,601,
355,607,
380,613,
410,617,
443,617,
433,622,
389,626,
410,630,
442,636,
469,635,
461,632,
413,631,
422,628,
454,627,
479,626,
475,623,
423,620,
423,616,
446,615,
475,614,
475,612,
427,610,
415,609,
444,611,
471,611,
472,607,
427,605,
405,599,
436,597,
462,596,
467,590,
422,585,
397,582,
420,580,
445,577,
453,573,
409,568,
373,567,
397,563,
419,560,
432,556,
391,553,
351,545,
369,541,
389,536,
406,532,
368,525,
326,520,
343,514,
368,512,
383,506,
356,502,
307,496,
319,494,
347,488,
363,484,
343,484,
294,482,
301,480,
328,479,
349,478,
335,478,
282,475,
287,475,
317,476,
337,477,
331,477,
280,478,
277,477,
304,478,
331,474,
332,474,
283,471,
273,469,
304,467,
332,465,
336,463,
294,463,
277,460,
306,461,
333,457,
343,458,
301,454,
278,455,
302,454,
331,451,
346,452,
307,450,
273,449,
299,446,
327,445,
343,443,
307,441,
271,439,
295,438,
318,438,
341,438,
310,439,
268,436,
287,434,
315,436,
336,434,
312,435,
268,433,
281,432,
312,437,
332,437,
316,440,
269,442,
283,443,
306,440,
334,447,
317,445,
269,445,
274,447,
306,448,
329,449,
321,450,
271,448,
269,445,
298,444,
322,441,
321,439,
273,437,
260,435,
289,436,
314,435,
317,434,
272,433,
250,432,
279,435,
304,437,
317,437,
269,437,
246,438,
273,438,
302,438,
315,438,
272,436,
243,435,
266,435,
296,435,
313,434,
275,434,
241,434,
263,434,
291,436,
