PPG A0,PPG A1,event_code
645,690,
646,675,
645,656,
645,641,
631,627,
618,614,
602,601,
583,588,
570,574,
558,562,
541,550,
521,537,
507,524,
487,509,
474,497,
455,487,
440,476,
425,464,
412,452,
395,447,
381,436,
365,428,
352,420,
341,414,
329,411,
322,409,
312,406,
297,400,
293,399,
287,401,
279,402,
273,404,
266,406,
264,408,
264,415,
259,419,
256,425,
252,430,
255,433,
256,440,
258,446,
257,452,
261,458,
265,461,
269,468,
272,477,
272,478,
276,484,
277,486,
287,491,
285,497,
288,495,
291,495,
293,494,
296,495,
298,496,
299,497,
299,493,
303,492,
306,488,
307,487,
304,485,
304,480,
307,475,
308,470,
308,467,
303,462,
299,458,
300,449,
300,444,
300,441,
297,436,
292,430,
291,425,
286,417,
286,415,
281,412,
280,406,
278,400,
276,392,
271,392,
264,389,
263,383,
258,378,
256,374,
253,371,
249,368,
246,365,
243,359,
241,355,
239,356,
236,351,
231,352,
228,348,
228,345,
225,345,
225,343,
219,345,
217,341,
218,340,
217,339,
218,342,
212,340,
210,340,
209,340,
211,344,
207,344,
202,345,
204,346,
202,344,
202,346,
197,351,
198,352,
197,354,
194,354,
198,356,
202,360,
198,361,
196,363,
193,363,
197,367,
199,370,
197,373,
198,374,
202,376,
203,377,
204,380,
204,382,
204,385,
202,386,
206,386,
207,389,
205,392,
206,394,
210,392,
212,393,
213,396,
215,398,
213,397,
216,399,
216,397,
218,400,
221,401,
219,401,
220,399,
222,400,
223,400,
222,399,
220,400,
221,397,
221,398,
224,397,
223,400,
224,401,
221,400,
224,400,
224,402,
222,405,
219,407,
220,412,
222,421,
220,428,
226,442,
227,454,
230,472,
236,489,
243,512,
246,538,
256,567,
268,599,
283,630,
299,663,
314,698,
331,728,
349,763,
371,792,
394,823,
418,852,
441,880,
461,902,
487,920,
513,938,
535,956,
556,968,
573,976,
597,981,
617,983,
631,984,
643,980,
646,974,
646,966,
646,954,
646,943,
646,930,
646,916,
645,897,
646,879,
646,863,
646,843,
646,823,
646,805,
645,780,
646,763,
646,745,
645,724,
637,705,
630,683,
620,670,
607,654,
589,638,
577,622,
564,607,
551,592,
537,579,
522,568,
507,555,
495,542,
485,530,
470,519,
456,509,
443,497,
433,484,
421,472,
408,464,
392,453,
381,442,
370,434,
362,427,
348,419,
336,414,
326,410,
315,403,
310,399,
302,397,
288,394,
285,394,
278,391,
274,394,
266,399,
264,400,
257,403,
255,407,
258,412,
254,419,
253,425,
251,431,
256,436,
256,441,
254,452,
260,457,
263,464,
267,470,
272,474,
277,478,
279,485,
283,489,
287,492,
292,495,
294,499,
293,501,
297,502,
303,504,
305,502,
307,502,
308,505,
306,503,
310,504,
312,496,
315,496,
312,495,
316,490,
312,485,
316,481,
314,478,
312,475,
309,470,
307,463,
306,460,
309,455,
304,451,
302,447,
301,441,
301,436,
297,432,
290,427,
289,423,
282,416,
286,412,
283,406,
279,404,
271,400,
270,399,
266,392,
265,389,
262,387,
256,383,
255,380,
251,375,
251,375,
250,375,
243,369,
242,371,
240,367,
238,368,
239,369,
235,367,
231,367,
230,364,
231,364,
232,364,
228,366,
223,366,
223,367,
225,369,
224,367,
221,369,
221,369,
220,371,
223,371,
220,373,
223,375,
216,376,
215,377,
216,375,
215,379,
216,381,
210,380,
212,382,
211,381,
210,384,
211,386,
211,385,
209,385,
213,381,
211,384,
212,385,
207,387,
211,388,
213,389,
215,391,
216,392,
211,394,
214,392,
216,393,
215,398,
217,402,
218,406,
217,413,
222,419,
223,429,
221,442,
227,456,
232,472,
238,491,
248,513,
255,541,
260,567,
271,594,
287,625,
304,657,
317,691,
334,722,
353,755,
379,784,
402,816,
425,840,
447,868,
468,892,
491,913,
517,932,
540,948,
558,963,
575,972,
597,980,
617,983,
631,987,
643,985,
646,982,
646,974,
646,964,
645,956,
646,944,
645,932,
645,915,
645,899,
646,883,
646,867,
645,848,
646,828,
645,807,
645,789,
646,771,
646,751,
645,732,
645,709,
632,696,
621,679,
606,663,
595,646,
587,630,
567,616,
556,602,
542,587,
529,568,
515,558,
499,547,
488,534,
472,524,
457,507,
444,494,
432,485,
418,474,
402,465,
391,455,
376,443,
367,433,
355,428,
340,423,
327,416,
322,408,
313,409,
301,406,
292,406,
285,405,
280,404,
278,406,
271,412,
266,414,
265,420,
261,423,
267,428,
261,436,
263,442,
263,447,
265,451,
267,458,
269,464,
271,473,
272,480,
277,480,
281,486,
286,493,
289,497,
291,498,
294,503,
299,504,
303,507,
302,509,
303,510,
306,508,
313,504,
317,504,
321,506,
317,502,
321,497,
320,494,
323,494,
322,491,
319,487,
320,481,
323,474,
318,471,
322,468,
318,463,
316,455,
313,451,
312,448,
307,444,
305,438,
301,434,
297,424,
297,421,
288,418,
286,413,
286,407,
285,402,
282,399,
277,397,
272,394,
267,388,
265,384,
264,383,
263,381,
258,379,
255,376,
253,372,
253,372,
249,370,
243,368,
242,367,
243,365,
239,363,
238,365,
236,363,
233,361,
231,359,
232,360,
229,362,
225,363,
224,363,
220,362,
223,363,
224,365,
221,368,
219,367,
220,369,
220,369,
218,372,
215,376,
214,375,
218,376,
218,376,
220,381,
219,382,
218,383,
220,383,
221,384,
220,388,
220,391,
218,390,
220,393,
217,389,
222,396,
220,397,
218,397,
217,395,
220,395,
222,398,
223,399,
221,400,
220,396,
220,397,
223,400,
224,402,
223,401,
222,400,
225,402,
226,405,
226,407,
226,413,
225,416,
231,423,
233,433,
235,449,
236,463,
240,478,
249,497,
254,521,
265,551,
272,579,
285,610,
302,643,
322,674,
339,709,
358,741,
380,780,
403,810,
430,842,
455,875,
477,904,
501,930,
527,952,
552,974,
575,991,
594,992,
618,991,
634,992,
645,992,
646,992,
646,992,
647,992,
646,991,
646,992,
647,991,
646,991,
645,991,
645,991,
646,992,
646,980,
646,965,
645,948,
646,935,
646,915,
647,901,
645,885,
645,869,
646,851,
646,833,
645,818,
646,802,
645,787,
646,769,
646,753,
644,737,
645,724,
646,711,
646,696,
647,679,
646,666,
646,654,
626,638,
611,621,
598,606,
581,588,
560,575,
545,559,
525,544,
506,527,
492,513,
473,501,
451,488,
433,475,
416,463,
400,454,
387,444,
365,436,
352,433,
341,426,
329,421,
314,419,
305,417,
290,414,
287,413,
285,418,
276,420,
275,421,
267,425,
262,427,
267,431,
266,437,
265,441,
264,444,
265,450,
270,456,
275,458,
278,464,
278,469,
285,473,
289,474,
295,479,
299,482,
299,484,
306,489,
308,488,
314,493,
316,493,
316,494,
318,493,
321,487,
326,489,
328,487,
325,486,
323,479,
328,480,
327,476,
327,472,
324,468,
318,463,
321,455,
322,451,
315,445,
315,442,
310,435,
312,432,
310,424,
304,420,
299,415,
297,410,
291,406,
290,399,
283,393,
278,387,
275,384,
271,376,
270,375,
263,369,
253,364,
248,361,
248,356,
243,352,
241,344,
236,345,
230,343,
224,342,
225,338,
224,337,
217,336,
209,336,
213,332,
214,330,
206,334,
202,333,
199,334,
199,333,
198,331,
197,333,
194,334,
192,336,
192,337,
197,337,
194,340,
193,342,
187,346,
193,346,
195,345,
193,350,
193,351,
191,355,
192,357,
191,356,
192,361,
196,362,
197,365,
195,366,
202,368,
204,369,
204,371,
201,376,
202,375,
207,374,
211,377,
207,378,
210,380,
212,378,
212,380,
218,382,
218,383,
215,382,
216,383,
220,382,
221,382,
221,386,
218,383,
217,387,
217,383,
221,385,
219,386,
217,386,
217,389,
216,391,
217,393,
213,402,
213,403,
215,416,
216,425,
217,438,
225,458,
231,480,
229,501,
244,526,
256,555,
266,589,
280,621,
294,652,
313,689,
333,723,
358,760,
379,796,
404,831,
427,860,
455,889,
478,918,
505,946,
527,970,
551,988,
573,991,
596,992,
616,992,
632,991,
645,992,
646,992,
646,993,
646,991,
646,992,
646,991,
645,992,
647,992,
645,991,
647,992,
646,971,
646,957,
646,942,
646,925,
646,908,
646,890,
646,870,
644,853,
646,838,
645,820,
646,802,
646,783,
646,766,
645,749,
646,735,
647,717,
638,701,
625,685,
614,671,
598,654,
582,638,
573,622,
555,604,
544,591,
524,572,
510,559,
494,539,
482,524,
465,510,
448,496,
432,482,
419,467,
407,457,
390,447,
379,436,
364,429,
353,419,
343,414,
332,411,
322,408,
307,406,
304,403,
299,404,
289,405,
288,410,
280,411,
279,414,
278,417,
274,423,
274,429,
272,435,
274,441,
276,444,
279,452,
280,457,
281,460,
284,467,
286,467,
291,475,
291,480,
294,486,
299,485,
305,487,
307,489,
311,490,
308,490,
309,488,
315,488,
316,488,
315,488,
318,486,
319,484,
319,478,
320,476,
318,473,
316,469,
314,465,
316,460,
316,454,
311,449,
308,444,
305,436,
306,430,
303,427,
303,419,
295,413,
292,410,
294,402,
288,395,
284,390,
281,384,
276,382,
271,376,
271,372,
264,369,
262,364,
254,361,
254,357,
253,352,
250,352,
245,350,
242,345,
240,344,
236,340,
240,338,
233,340,
230,338,
228,336,
229,334,
226,334,
222,335,
220,336,
219,336,
215,335,
215,337,
216,339,
214,338,
213,338,
210,336,
209,341,
212,342,
210,346,
206,343,
210,343,
210,344,
210,348,
205,350,
204,350,
205,351,
203,350,
204,355,
204,356,
203,355,
204,356,
207,359,
206,361,
206,359,
205,361,
209,362,
207,362,
209,363,
210,365,
208,367,
214,368,
212,367,
213,372,
212,373,
208,379,
214,380,
218,388,
219,396,
217,404,
221,419,
227,433,
232,451,
238,473,
243,496,
249,521,
263,549,
274,581,
292,616,
309,648,
318,685,
342,719,
366,753,
390,790,
409,823,
432,855,
456,885,
486,913,
507,940,
529,963,
552,985,
572,992,
597,991,
612,992,
627,992,
638,992,
646,991,
646,991,
644,991,
646,991,
646,992,
646,992,
646,992,
647,991,
646,983,
646,969,
646,951,
646,936,
646,921,
646,903,
646,887,
646,869,
647,848,
647,831,
646,813,
647,795,
630,776,
626,759,
611,742,
597,723,
584,708,
566,690,
558,671,
549,656,
531,636,
514,618,
500,600,
490,582,
476,561,
463,546,
442,528,
429,512,
416,492,
405,475,
389,461,
374,445,
358,433,
350,419,
339,408,
327,401,
316,392,
305,387,
297,379,
288,377,
282,374,
276,373,
271,372,
269,372,
265,375,
263,381,
260,384,
260,390,
260,395,
260,400,
262,406,
265,415,
266,422,
268,427,
272,432,
279,440,
282,447,
280,453,
286,459,
288,459,
293,467,
296,472,
296,474,
299,471,
305,476,
303,477,
304,479,
310,478,
309,475,
309,472,
311,471,
310,470,
309,467,
308,462,
311,458,
309,452,
306,450,
302,444,
298,440,
298,432,
297,426,
295,421,
289,416,
287,409,
285,402,
285,396,
282,394,
276,388,
274,382,
269,375,
268,373,
263,368,
257,359,
254,359,
251,353,
249,350,
241,347,
240,344,
237,338,
234,333,
234,330,
231,330,
227,329,
222,326,
222,324,
220,322,
219,321,
213,324,
211,321,
209,320,
208,319,
207,320,
204,321,
200,323,
200,322,
201,320,
201,324,
200,325,
199,327,
199,330,
200,328,
201,333,
201,334,
198,336,
197,337,
201,335,
202,341,
201,343,
200,344,
202,345,
201,347,
204,348,
204,352,
203,353,
199,352,
204,354,
206,356,
204,360,
201,362,
199,360,
204,360,
202,361,
201,364,
203,364,
198,364,
203,363,
202,366,
206,365,
204,365,
205,367,
206,368,
210,369,
208,370,
204,371,
205,375,
204,378,
209,384,
210,395,
210,405,
207,418,
217,432,
222,449,
228,475,
234,499,
240,527,
252,558,
269,592,
283,629,
299,665,
317,703,
338,740,
362,775,
389,815,
413,851,
438,887,
464,920,
492,949,
518,977,
539,991,
560,992,
589,992,
612,992,
634,991,
647,991,
646,992,
646,991,
646,992,
646,992,
647,991,
646,991,
646,992,
646,992,
645,991,
646,992,
646,992,
646,992,
646,991,
646,991,
646,992,
646,991,
646,983,
646,963,
646,945,
646,927,
646,911,
646,892,
646,873,
646,854,
647,841,
646,821,
646,803,
646,783,
642,765,
628,751,
610,731,
597,713,
583,691,
569,671,
551,649,
531,628,
510,609,
496,588,
487,567,
465,549,
449,530,
432,510,
418,495,
404,476,
387,463,
372,448,
356,436,
344,422,
342,414,
327,405,
314,398,
306,394,
299,387,
297,384,
288,384,
283,383,
274,383,
272,385,
270,385,
270,390,
266,395,
264,399,
266,402,
265,405,
270,414,
266,419,
272,425,
272,431,
277,434,
279,440,
280,446,
281,450,
284,452,
286,457,
287,460,
292,465,
293,466,
290,467,
295,464,
297,465,
298,466,
298,463,
296,461,
301,457,
302,455,
299,453,
298,449,
294,443,
294,438,
291,431,
294,429,
285,422,
285,418,
284,410,
285,401,
281,399,
274,393,
273,387,
271,379,
273,373,
266,370,
263,363,
259,357,
252,349,
254,345,
250,338,
244,335,
242,331,
237,325,
234,321,
231,316,
226,314,
223,311,
218,304,
221,303,
217,304,
209,300,
208,301,
203,297,
206,296,
203,295,
200,295,
197,292,
197,293,
196,294,
196,293,
193,294,
194,296,
192,296,
190,293,
190,298,
193,299,
188,301,
185,300,
190,304,
190,304,
187,308,
187,309,
185,308,
186,310,
190,312,
186,317,
189,320,
188,322,
195,323,
191,327,
189,327,
192,331,
190,333,
192,335,
195,339,
196,341,
191,342,
195,345,
195,344,
199,348,
194,348,
195,353,
197,351,
197,354,
201,356,
202,359,
199,360,
199,364,
200,363,
205,364,
202,368,
200,369,
198,370,
197,368,
204,371,
200,373,
199,374,
198,375,
200,376,
205,372,
202,372,
201,373,
201,374,
200,374,
201,371,
203,375,
203,374,
203,374,
204,373,
205,369,
206,371,
206,368,
204,367,
205,365,
203,362,
206,364,
204,363,
201,364,
202,363,
204,366,
207,367,
204,371,
208,374,
201,376,
209,383,
208,393,
209,407,
211,423,
214,438,
221,458,
227,486,
232,513,
239,544,
249,578,
263,614,
280,650,
295,689,
312,728,
331,765,
355,802,
383,839,
403,874,
427,905,
453,935,
482,961,
509,986,
531,992,
551,992,
574,992,
598,992,
619,992,
635,991,
646,992,
646,991,
646,991,
645,993,
645,992,
646,992,
647,992,
647,992,
646,992,
647,992,
646,992,
646,991,
645,968,
645,949,
646,933,
645,913,
647,897,
646,875,
645,857,
646,841,
647,824,
646,808,
646,790,
646,770,
646,753,
635,740,
621,723,
609,705,
598,686,
581,673,
572,659,
556,644,
539,626,
524,608,
512,595,
499,579,
480,561,
467,545,
452,528,
435,512,
424,499,
405,484,
393,473,
380,458,
371,447,
356,440,
341,430,
331,422,
317,415,
313,411,
301,409,
296,405,
284,404,
285,403,
284,404,
279,407,
272,407,
270,413,
272,414,
275,420,
273,425,
273,431,
272,435,
274,438,
277,443,
282,449,
284,456,
287,460,
289,461,
298,469,
300,469,
298,474,
303,477,
307,479,
306,478,
308,479,
309,482,
307,482,
308,479,
310,478,
311,478,
307,476,
309,472,
308,469,
308,464,
309,463,
307,459,
302,455,
302,451,
300,440,
299,437,
298,432,
295,427,
290,422,
290,414,
289,410,
281,405,
276,399,
274,393,
272,385,
267,382,
263,377,
261,372,
259,364,
256,360,
249,356,
250,352,
246,348,
240,345,
238,342,
236,338,
234,339,
231,334,
224,332,
222,327,
222,328,
217,324,
214,323,
212,324,
212,321,
210,321,
207,322,
205,318,
203,322,
203,320,
201,321,
201,320,
198,324,
194,323,
197,321,
197,323,
199,329,
201,328,
198,328,
197,329,
205,332,
199,334,
202,337,
198,339,
201,340,
202,342,
197,346,
201,349,
200,353,
199,353,
205,355,
205,357,
206,361,
200,363,
205,366,
203,366,
207,371,
206,375,
206,377,
206,379,
208,377,
207,382,
208,382,
207,384,
206,384,
215,386,
214,386,
216,389,
216,389,
216,388,
216,388,
219,389,
220,391,
217,390,
214,387,
218,387,
220,387,
215,387,
218,385,
218,384,
223,384,
219,384,
217,383,
222,381,
215,381,
220,381,
219,378,
221,377,
217,377,
220,380,
222,379,
223,380,
224,389,
223,393,
221,400,
225,411,
230,424,
234,439,
232,460,
236,481,
242,502,
250,529,
259,561,
269,591,
278,623,
294,657,
311,690,
329,726,
347,761,
363,793,
388,822,
414,850,
436,881,
454,907,
476,927,
496,948,
514,962,
537,976,
555,987,
569,991,
589,992,
601,991,
616,991,
625,991,
634,983,
642,972,
646,960,
647,948,
646,936,
647,920,
646,902,
645,883,
645,866,
645,850,
639,831,
631,810,
628,790,
619,769,
610,754,
598,734,
586,717,
576,699,
567,682,
550,664,
539,650,
527,635,
515,617,
504,603,
486,591,
474,575,
463,559,
450,546,
443,535,
429,521,
418,505,
407,493,
396,478,
389,463,
374,453,
366,442,
351,432,
342,420,
333,414,
325,407,
314,399,
306,393,
300,388,
292,383,
286,381,
277,384,
274,384,
266,383,
266,385,
265,390,
262,394,
259,399,
259,400,
262,407,
260,415,
262,422,
257,427,
264,434,
264,437,
268,443,
271,452,
273,460,
272,462,
277,467,
281,473,
284,476,
284,481,
289,482,
292,482,
297,486,
294,489,
299,488,
302,488,
307,485,
305,485,
305,484,
304,483,
303,476,
303,474,
301,471,
305,467,
302,461,
299,456,
302,450,
297,445,
300,442,
293,436,
291,430,
291,424,
290,418,
283,412,
278,404,
276,400,
274,398,
274,391,
267,385,
265,381,
259,377,
259,371,
260,370,
256,366,
253,364,
249,359,
247,355,
246,350,
243,348,
240,346,
232,346,
234,342,
232,338,
232,338,
225,338,
224,336,
222,335,
219,333,
215,333,
217,333,
213,332,
208,331,
208,329,
211,333,
207,334,
205,334,
204,335,
204,333,
202,336,
196,337,
195,339,
198,338,
200,340,
196,341,
197,344,
198,346,
195,346,
195,346,
199,349,
196,351,
195,353,
197,353,
196,354,
198,356,
198,360,
198,361,
197,364,
195,364,
196,367,
200,370,
198,373,
197,375,
199,373,
205,376,
196,379,
196,379,
200,381,
200,381,
203,382,
201,388,
202,386,
200,388,
203,387,
204,387,
203,391,
206,391,
202,389,
210,391,
210,390,
210,392,
209,390,
210,391,
211,389,
212,389,
213,390,
211,389,
216,390,
212,389,
214,385,
216,385,
217,387,
215,385,
215,383,
216,382,
221,384,
217,384,
215,384,
218,388,
216,384,
220,390,
217,395,
217,400,
213,407,
221,415,
223,428,
224,441,
226,458,
232,479,
236,500,
248,528,
251,557,
261,589,
270,624,
287,656,
304,692,
321,729,
338,764,
356,799,
379,831,
401,860,
425,893,
446,918,
470,944,
495,963,
518,983,
542,992,
559,991,
582,992,
597,992,
620,991,
632,991,
643,992,
645,992,
645,991,
647,991,
647,991,
646,983,
646,970,
646,952,
646,940,
645,925,
647,911,
645,895,
646,876,
645,857,
645,843,
646,826,
646,809,
645,791,
645,774,
644,760,
646,747,
633,734,
621,718,
610,701,
600,690,
590,678,
573,668,
560,655,
546,641,
538,631,
525,620,
513,607,
500,595,
489,578,
478,569,
463,559,
452,546,
439,533,
432,522,
417,509,
405,498,
394,488,
382,478,
373,469,
363,463,
357,455,
346,450,
338,445,
332,439,
325,436,
319,433,
310,432,
305,432,
301,431,
298,431,
298,437,
293,437,
291,442,
292,443,
292,448,
294,452,
288,455,
286,461,
293,466,
295,469,
297,473,
295,479,
296,481,
299,485,
304,489,
305,491,
305,493,
308,495,
310,493,
311,493,
311,496,
310,495,
308,493,
305,490,
310,487,
311,484,
312,483,
307,481,
299,475,
305,470,
304,468,
302,462,
298,458,
298,450,
296,447,
296,441,
296,437,
291,429,
292,426,
287,415,
288,414,
286,407,
281,404,
277,399,
278,394,
275,390,
271,386,
266,385,
263,379,
262,372,
262,370,
256,367,
254,364,
248,361,
246,357,
245,356,
243,355,
239,353,
235,352,
233,350,
237,349,
233,349,
226,350,
221,345,
225,345,
227,346,
224,349,
217,348,
219,349,
214,347,
218,349,
218,348,
212,347,
205,350,
210,348,
210,351,
211,350,
207,351,
206,352,
206,352,
208,351,
207,354,
205,356,
201,358,
206,358,
206,360,
205,360,
204,363,
199,367,
200,367,
204,367,
207,370,
205,372,
204,373,
206,370,
207,373,
210,378,
209,380,
208,381,
209,382,
208,379,
212,384,
213,386,
210,387,
213,387,
215,384,
215,389,
216,389,
216,392,
213,392,
217,390,
219,391,
217,391,
218,393,
219,394,
221,392,
221,393,
221,396,
222,396,
221,394,
224,394,
226,394,
225,395,
222,395,
221,395,
222,393,
225,392,
224,396,
224,395,
224,395,
226,394,
225,397,
226,400,
224,398,
225,402,
227,404,
229,412,
229,422,
233,429,
234,443,
240,456,
243,473,
246,496,
253,519,
256,547,
262,573,
274,604,
283,637,
297,671,
311,706,
331,739,
352,771,
371,807,
387,837,
410,867,
433,891,
454,917,
479,940,
499,960,
521,977,
543,990,
563,992,
582,991,
601,992,
609,992,
627,992,
640,992,
644,992,
646,992,
646,989,
646,974,
644,961,
646,945,
646,934,
646,918,
647,898,
645,880,
647,863,
646,849,
646,830,
646,812,
645,791,
644,773,
628,756,
620,739,
610,721,
597,704,
587,688,
574,676,
558,660,
545,646,
531,631,
523,616,
508,606,
494,592,
483,580,
473,567,
464,556,
451,543,
437,529,
425,517,
413,505,
406,492,
394,482,
381,472,
370,462,
359,450,
353,441,
343,433,
335,428,
327,423,
317,417,
311,409,
305,407,
298,404,
292,403,
286,402,
284,401,
280,401,
278,405,
271,409,
271,405,
270,410,
265,415,
270,422,
264,426,
267,434,
267,434,
269,442,
269,448,
270,454,
270,459,
273,462,
276,466,
278,473,
277,476,
279,478,
288,481,
290,482,
291,485,
291,488,
295,487,
298,486,
300,483,
300,482,
306,481,
301,479,
308,477,
307,475,
305,471,
304,467,
304,461,
302,455,
302,449,
303,450,
298,443,
297,439,
297,433,
295,430,
294,424,
287,418,
287,414,
284,410,
286,408,
283,407,
279,400,
275,395,
274,394,
272,389,
272,386,
265,387,
261,385,
260,379,
260,379,
255,378,
253,376,
247,375,
243,373,
246,370,
241,369,
240,368,
233,367,
234,364,
233,362,
234,362,
230,362,
226,359,
224,359,
222,358,
223,358,
220,357,
217,353,
219,357,
215,352,
217,355,
214,356,
214,358,
213,354,
213,354,
213,355,
210,355,
215,357,
211,358,
211,356,
213,356,
213,361,
211,362,
209,364,
213,364,
213,369,
214,370,
214,372,
212,374,
213,374,
217,375,
214,377,
215,379,
213,383,
213,382,
215,382,
212,387,
213,387,
215,389,
215,389,
220,390,
220,395,
221,394,
220,396,
222,396,
225,397,
226,401,
226,399,
229,400,
229,399,
234,403,
233,402,
233,403,
232,401,
234,403,
237,402,
234,404,
234,405,
235,405,
233,404,
237,403,
237,404,
234,404,
233,403,
235,404,
233,402,
235,405,
233,404,
227,403,
230,403,
227,399,
231,401,
230,403,
225,401,
226,402,
230,400,
226,400,
228,400,
226,400,
225,399,
226,399,
224,399,
228,403,
223,406,
224,409,
226,412,
228,422,
228,432,
228,442,
230,459,
236,473,
243,493,
246,517,
251,544,
259,572,
273,602,
283,634,
293,670,
308,703,
323,738,
342,769,
362,802,
383,835,
402,861,
425,890,
444,912,
467,932,
491,954,
513,970,
528,981,
546,988,
572,992,
589,991,
604,991,
615,992,
630,988,
640,977,
645,967,
645,955,
645,941,
646,928,
646,908,
646,892,
645,874,
646,857,
646,833,
646,813,
645,794,
644,775,
631,754,
625,736,
613,713,
605,699,
592,681,
584,665,
568,648,
559,630,
548,618,
534,605,
519,591,
506,579,
499,567,
489,558,
478,550,
461,538,
451,528,
443,516,
432,508,
422,499,
409,492,
399,481,
395,471,
384,461,
371,457,
361,449,
350,441,
343,435,
339,429,
331,426,
320,420,
313,417,
308,413,
305,410,
298,411,
290,408,
289,411,
284,409,
285,411,
281,417,
276,419,
277,423,
274,425,
280,430,
281,436,
278,441,
279,445,
280,450,
286,454,
287,461,
287,466,
289,473,
292,476,
294,480,
297,484,
298,491,
300,495,
303,495,
307,500,
311,501,
312,503,
308,506,
314,504,
316,503,
319,504,
316,503,
319,500,
316,497,
319,493,
323,494,
323,490,
320,487,
318,483,
320,477,
320,473,
314,469,
314,464,
310,454,
313,449,
309,445,
308,441,
304,434,
299,428,
299,422,
296,416,
294,412,
288,408,
281,402,
281,397,
276,393,
274,389,
270,385,
263,381,
261,375,
254,374,
255,373,
248,369,
246,365,
246,364,
242,362,
240,361,
236,357,
236,359,
232,355,
232,354,
228,356,
226,356,
225,355,
223,351,
224,354,
221,357,
218,355,
217,353,
215,354,
215,353,
217,353,
215,357,
212,358,
213,360,
216,358,
215,362,
214,362,
211,365,
206,366,
211,365,
211,369,
211,370,
205,371,
208,375,
206,374,
210,376,
208,380,
210,383,
209,385,
212,385,
212,390,
213,395,
212,395,
207,397,
216,400,
219,398,
220,403,
219,404,
216,406,
221,405,
219,410,
223,413,
220,414,
220,415,
226,417,
225,415,
227,418,
225,419,
226,419,
227,419,
232,419,
232,422,
227,421,
230,422,
233,422,
230,420,
230,422,
227,421,
227,422,
233,419,
229,418,
230,418,
229,418,
228,418,
230,415,
229,413,
232,411,
229,413,
225,410,
229,409,
231,407,
228,411,
226,410,
226,412,
228,412,
229,418,
228,423,
229,430,
229,439,
232,449,
236,464,
241,479,
245,498,
244,520,
254,543,
263,569,
271,600,
278,631,
288,660,
307,693,
320,720,
344,754,
357,785,
382,813,
400,839,
426,864,
445,884,
468,905,
485,923,
509,938,
529,947,
551,958,
570,963,
582,967,
603,965,
617,963,
629,959,
642,954,
644,944,
646,934,
646,919,
645,906,
646,891,
645,874,
645,856,
646,836,
646,815,
645,800,
645,779,
646,757,
641,741,
636,719,
626,705,
613,685,
601,670,
591,651,
584,636,
563,622,
558,608,
540,593,
525,579,
518,566,
505,555,
491,543,
478,531,
468,519,
455,508,
442,500,
427,489,
416,478,
405,468,
394,459,
385,453,
373,446,
361,438,
351,428,
341,422,
334,419,
326,416,
314,414,
310,409,
302,405,
298,405,
288,410,
285,412,
282,413,
278,415,
278,420,
272,425,
271,429,
270,433,
268,438,
271,444,
270,450,
271,456,
273,463,
278,466,
284,473,
288,478,
289,484,
289,487,
295,494,
300,497,
302,503,
301,507,
307,509,
309,508,
311,510,
311,512,
313,514,
315,517,
319,513,
322,513,
327,515,
321,511,
324,511,
324,507,
328,503,
325,507,
328,500,
328,493,
325,489,
325,486,
326,481,
324,477,
322,473,
321,465,
320,460,
319,456,
314,453,
312,444,
308,440,
308,432,
305,430,
298,425,
294,420,
290,416,
290,409,
288,405,
285,403,
278,396,
276,394,
272,386,
271,386,
266,384,
263,381,
260,378,
257,375,
255,376,
253,377,
248,376,
243,371,
246,372,
243,370,
240,371,
236,370,
233,370,
233,369,
232,372,
225,371,
227,373,
225,374,
227,372,
227,373,
226,373,
223,374,
220,373,
221,373,
226,376,
226,376,
222,373,
222,375,
222,374,
225,377,
223,377,
218,377,
216,380,
221,378,
227,380,
223,382,
222,382,
222,385,
220,385,
224,386,
223,390,
222,390,
223,392,
225,392,
227,394,
223,397,
226,398,
225,399,
224,400,
229,403,
230,405,
230,405,
226,407,
229,407,
232,405,
230,407,
229,409,
226,409,
228,409,
230,410,
222,412,
222,412,
223,412,
223,414,
221,411,
226,413,
225,413,
224,414,
224,411,
226,411,
227,413,
225,414,
221,413,
217,412,
224,409,
226,409,
220,411,
221,412,
221,410,
225,411,
227,413,
226,416,
223,419,
226,423,
228,428,
229,436,
231,447,
230,458,
235,472,
241,489,
247,510,
252,537,
255,561,
262,588,
276,617,
289,652,
304,684,
315,714,
334,747,
352,778,
372,808,
394,837,
415,863,
436,888,
458,905,
484,926,
501,941,
523,954,
542,962,
561,968,
581,973,
596,974,
611,972,
624,967,
636,960,
643,949,
646,937,
646,924,
646,909,
645,890,
646,870,
646,852,
645,833,
646,813,
646,793,
646,768,
645,749,
637,728,
626,705,
609,688,
604,663,
590,648,
577,634,
564,614,
549,597,
539,583,
527,568,
512,556,
500,540,
485,530,
475,515,
463,504,
452,494,
440,484,
425,473,
418,463,
410,453,
396,445,
381,438,
371,429,
362,422,
349,418,
343,414,
330,410,
322,406,
314,403,
309,401,
298,404,
293,401,
290,403,
286,405,
286,409,
278,413,
276,415,
269,420,
270,422,
273,429,
270,435,
271,439,
271,446,
271,448,
272,452,
272,461,
274,469,
276,472,
278,476,
282,480,
281,487,
287,490,
286,494,
290,495,
294,497,
298,498,
303,505,
298,505,
304,506,
308,503,
314,507,
312,508,
312,504,
314,505,
315,497,
320,498,
321,498,
322,494,
319,492,
322,488,
323,483,
322,481,
317,478,
320,473,
316,467,
318,466,
318,459,
313,456,
308,455,
309,446,
308,444,
304,438,
300,434,
294,431,
293,428,
288,420,
289,418,
283,414,
281,410,
275,404,
276,401,
272,399,
265,394,
260,393,
263,388,
261,386,
259,384,
253,379,
249,379,
247,375,
245,374,
241,374,
242,372,
237,370,
237,369,
233,368,
232,370,
230,370,
225,367,
225,369,
226,368,
225,369,
222,371,
219,372,
219,370,
223,370,
221,372,
217,374,
217,375,
217,376,
217,375,
217,380,
219,383,
214,382,
219,384,
216,383,
220,387,
219,391,
219,393,
217,394,
221,393,
221,396,
220,398,
219,400,
218,399,
219,400,
218,404,
223,405,
223,406,
225,406,
226,406,
230,410,
228,409,
229,411,
226,412,
230,413,
231,413,
232,415,
232,415,
230,416,
233,415,
232,412,
234,419,
230,417,
232,417,
232,417,
237,419,
237,419,
230,417,
235,421,
237,420,
240,421,
238,424,
236,424,
236,427,
239,430,
241,434,
241,443,
239,449,
239,458,
242,469,
247,483,
249,500,
253,519,
255,541,
265,566,
274,592,
283,623,
294,651,
302,682,
318,716,
338,744,
354,776,
372,805,
389,835,
412,859,
432,880,
458,903,
472,923,
496,939,
520,950,
539,959,
561,970,
579,974,
593,976,
612,973,
625,969,
637,961,
644,954,
645,946,
645,931,
645,913,
645,899,
645,882,
646,865,
646,845,
645,824,
646,803,
646,786,
645,764,
645,743,
641,723,
633,702,
624,686,
610,666,
598,648,
586,629,
574,614,
561,596,
543,580,
531,565,
519,549,
505,534,
489,522,
474,507,
456,492,
450,480,
438,470,
426,457,
411,449,
398,440,
390,430,
377,420,
366,414,
352,410,
343,405,
332,399,
325,395,
311,394,
305,394,
298,395,
291,394,
287,395,
284,400,
278,404,
274,410,
272,414,
271,419,
268,426,
267,437,
266,443,
268,452,
271,456,
278,469,
282,476,
282,484,
285,488,
292,497,
296,505,
300,510,
301,516,
305,522,
309,525,
312,531,
317,533,
322,537,
322,537,
330,538,
333,537,
334,538,
336,541,
335,537,
341,536,
341,529,
343,529,
342,528,
339,524,
341,518,
341,515,
345,511,
336,505,
336,501,
334,492,
333,488,
330,484,
323,477,
318,472,
321,470,
314,464,
311,459,
307,454,
303,448,
299,441,
298,436,
294,431,
291,428,
287,423,
280,418,
286,415,
281,411,
275,409,
273,403,
272,400,
271,399,
270,396,
266,394,
259,391,
256,389,
260,389,
260,387,
256,386,
254,384,
255,383,
250,378,
251,379,
247,379,
245,379,
241,378,
243,372,
240,375,
236,375,
234,374,
231,373,
237,373,
235,376,
231,375,
227,377,
225,374,
227,373,
230,374,
227,376,
229,376,
225,374,
228,378,
228,378,
224,382,
225,381,
223,383,
222,383,
226,384,
223,385,
222,386,
220,388,
225,388,
223,388,
221,393,
216,393,
218,397,
218,398,
220,399,
216,400,
219,403,
218,404,
218,405,
220,405,
220,408,
223,411,
222,412,
225,412,
228,413,
229,413,
230,419,
231,419,
233,421,
237,424,
237,427,
233,430,
237,435,
238,439,
240,447,
245,457,
246,473,
242,483,
246,497,
255,518,
262,540,
268,564,
274,589,
286,616,
295,642,
311,677,
327,709,
345,738,
355,762,
381,792,
400,819,
419,845,
440,868,
459,889,
478,904,
503,921,
520,935,
539,946,
556,953,
574,958,
592,962,
605,961,
615,959,
625,951,
635,943,
641,932,
645,918,
645,905,
645,891,
646,870,
646,852,
645,836,
645,816,
637,795,
632,772,
627,751,
616,731,
606,708,
594,691,
584,671,
576,653,
556,638,
546,617,
536,600,
519,582,
512,566,
497,553,
489,538,
471,524,
459,510,
448,496,
436,487,
420,475,
412,464,
398,452,
388,440,
376,429,
365,424,
350,416,
341,409,
334,400,
323,396,
318,393,
305,388,
300,385,
292,381,
290,385,
283,386,
277,387,
273,390,
269,388,
266,395,
264,400,
263,405,
259,412,
259,416,
260,423,
257,428,
258,436,
259,443,
266,447,
266,453,
269,461,
267,468,
271,473,
274,480,
279,482,
280,489,
282,492,
281,497,
288,498,
292,500,
296,503,
297,503,
303,503,
304,503,
309,503,
309,502,
306,500,
311,501,
311,495,
316,493,
319,491,
315,487,
314,482,
312,478,
316,474,
313,471,
312,465,
309,461,
303,455,
306,449,
304,446,
300,440,
293,437,
295,431,
292,425,
289,423,
286,418,
285,415,
280,409,
278,406,
277,402,
270,400,
266,395,
267,393,
262,387,
260,387,
255,385,
253,381,
247,380,
244,373,
244,375,
238,374,
238,375,
236,372,
238,369,
231,370,
233,369,
228,371,
226,371,
224,367,
224,369,
219,369,
219,370,
215,371,
218,369,
217,372,
214,372,
213,373,
212,373,
214,373,
210,372,
211,376,
210,375,
209,377,
211,376,
214,377,
213,380,
207,380,
210,381,
210,380,
211,382,
211,381,
210,380,
208,381,
211,381,
214,381,
214,385,
214,385,
212,388,
214,387,
216,386,
218,390,
217,390,
217,391,
214,391,
220,391,
217,394,
218,396,
217,398,
214,398,
218,400,
220,404,
221,408,
219,413,
221,416,
223,423,
226,434,
230,448,
226,457,
231,473,
234,490,
242,513,
246,539,
254,565,
262,591,
274,622,
285,655,
301,686,
316,718,
326,748,
350,777,
371,806,
389,834,
407,857,
421,880,
454,898,
473,917,
495,932,
512,943,
532,952,
549,956,
568,959,
577,960,
594,955,
605,950,
617,939,
627,930,
635,916,
639,902,
639,887,
643,869,
645,849,
643,830,
636,808,
634,788,
631,767,
624,745,
617,723,
608,705,
596,683,
586,661,
576,641,
563,625,
553,605,
540,586,
527,570,
517,554,
505,541,
491,527,
477,513,
468,500,
453,486,
442,476,
430,464,
413,451,
403,442,
390,431,
382,421,
367,416,
356,404,
342,399,
333,391,
327,385,
319,382,
307,380,
298,373,
289,370,
284,373,
281,374,
272,375,
264,375,
261,378,
259,379,
251,386,
248,391,
243,394,
247,400,
244,406,
242,416,
239,422,
239,430,
246,435,
250,441,
251,449,
250,458,
254,464,
259,470,
262,475,
266,482,
268,487,
267,491,
281,495,
284,499,
288,504,
288,506,
293,508,
299,509,
301,511,
306,511,
307,509,
309,509,
312,507,
313,505,
317,503,
318,502,
314,500,
317,495,
320,493,
319,489,
316,485,
314,479,
313,476,
313,469,
309,468,
309,461,
304,457,
299,451,
302,447,
294,443,
292,438,
284,435,
287,428,
282,421,
278,417,
277,415,
269,411,
265,408,
267,399,
269,401,
264,400,
263,396,
260,392,
260,390,
258,386,
256,384,
252,384,
248,380,
252,379,
245,379,
246,380,
247,377,
244,376,
243,374,
242,376,
242,378,
237,377,
235,374,
235,375,
235,375,
234,377,
229,376,
229,376,
228,376,
227,377,
229,381,
226,379,
224,380,
230,379,
226,381,
218,382,
218,381,
218,383,
219,387,
218,385,
220,390,
217,388,
213,386,
213,388,
216,389,
217,395,
215,393,
214,398,
218,400,
216,404,
220,411,
221,420,
219,430,
223,442,
228,456,
232,474,
233,494,
239,517,
247,539,
255,568,
269,599,
281,630,
287,663,
300,694,
319,724,
337,759,
358,789,
377,819,
397,847,
420,870,
444,895,
466,915,
486,937,
508,948,
532,961,
554,968,
568,977,
590,981,
600,981,
614,978,
628,971,
638,966,
644,954,
646,939,
647,927,
646,911,
644,891,
646,875,
646,857,
645,834,
645,813,
645,794,
644,772,
634,752,
627,730,
620,712,
606,692,
590,671,
580,653,
570,633,
559,617,
546,602,
531,585,
519,571,
506,557,
496,543,
480,530,
464,516,
453,502,
438,489,
425,479,
416,464,
407,456,
385,445,
375,436,
371,424,
355,418,
343,412,
330,405,
323,399,
315,393,
302,392,
296,390,
290,391,
286,389,
280,388,
277,393,
277,397,
266,399,
265,401,
263,406,
267,413,
266,421,
260,430,
261,437,
268,443,
272,452,
272,458,
274,466,
279,471,
282,477,
284,482,
294,491,
294,496,
297,501,
301,503,
305,508,
308,510,
310,515,
311,518,
313,517,
316,516,
323,518,
319,517,
321,515,
327,514,
329,511,
329,511,
329,507,
328,505,
327,500,
330,497,
330,494,
327,488,
328,485,
327,482,
330,477,
327,474,
323,470,
320,463,
317,458,
320,454,
314,452,
312,448,
310,444,
307,439,
305,434,
302,431,
298,426,
293,421,
290,417,
288,415,
285,413,
284,408,
277,408,
275,404,
274,399,
271,398,
266,395,
260,391,
258,390,
254,385,
251,385,
250,385,
247,381,
244,378,
245,374,
244,376,
237,376,
238,374,
235,370,
235,369,
231,368,
233,368,
228,368,
228,367,
226,366,
229,368,
226,369,
226,371,
224,369,
225,369,
224,369,
224,375,
221,378,
219,383,
219,388,
223,397,
222,410,
222,421,
223,438,
229,456,
234,480,
242,505,
243,531,
252,561,
266,591,
278,623,
297,659,
309,692,
325,727,
349,761,
369,792,
392,826,
413,857,
437,884,
459,907,
485,931,
510,952,
530,972,
551,984,
572,991,
594,992,
607,991,
623,992,
637,991,
645,991,
645,992,
645,991,
646,992,
645,980,
647,964,
646,950,
645,938,
647,923,
646,905,
646,888,
645,866,
646,850,
646,832,
646,815,
645,793,
645,774,
639,757,
632,739,
618,720,
608,703,
596,686,
581,670,
572,652,
558,636,
544,620,
533,601,
522,587,
509,573,
496,558,
479,543,
468,526,
457,510,
442,498,
431,483,
414,470,
401,454,
390,445,
379,434,
366,425,
354,414,
345,407,
339,401,
329,399,
319,393,
312,393,
303,390,
299,390,
292,391,
291,394,
280,396,
279,399,
278,403,
276,410,
274,415,
271,423,
271,427,
275,433,
273,440,
276,448,
277,453,
276,460,
285,466,
287,472,
288,478,
292,486,
295,490,
300,492,
305,497,
307,499,
305,502,
310,503,
310,500,
316,503,
317,503,
317,503,
319,503,
321,497,
324,498,
324,495,
323,493,
321,485,
325,485,
320,480,
320,475,
316,471,
316,470,
313,460,
317,457,
317,452,
311,450,
308,443,
308,437,
307,431,
305,430,
299,424,
295,417,
293,413,
293,408,
289,405,
284,403,
281,399,
280,392,
279,390,
276,388,
269,384,
268,381,
264,376,
263,373,
261,374,
257,370,
253,368,
250,365,
250,364,
248,362,
249,361,
241,360,
241,356,
244,355,
243,355,
238,354,
231,355,
231,355,
234,352,
232,353,
228,352,
227,350,
225,352,
225,350,
224,353,
221,353,
218,355,
218,353,
221,353,
217,355,
216,362,
213,364,
216,369,
213,370,
218,382,
219,391,
215,404,
217,418,
226,435,
230,457,
236,483,
242,512,
247,539,
264,573,
276,607,
287,645,
308,685,
324,721,
347,761,
373,800,
396,835,
418,872,
437,902,
475,936,
497,963,
521,989,
548,992,
566,992,
590,992,
613,992,
630,992,
642,992,
645,992,
646,992,
647,992,
646,992,
645,992,
646,992,
646,992,
646,992,
646,991,
646,991,
646,992,
646,993,
646,992,
645,992,
645,992,
646,972,
645,951,
645,932,
645,915,
645,894,
646,876,
645,857,
646,836,
645,818,
646,799,
645,782,
646,760,
632,739,
616,719,
605,700,
589,680,
576,659,
559,636,
547,617,
534,597,
514,576,
499,559,
482,534,
465,519,
452,502,
435,484,
421,468,
408,455,
394,441,
378,430,
367,421,
352,408,
340,401,
331,398,
317,395,
308,391,
298,388,
295,389,
289,389,
282,392,
277,397,
273,400,
271,405,
272,408,
266,413,
268,422,
264,427,
271,431,
276,440,
279,448,
277,452,
281,459,
287,462,
292,469,
290,470,
297,476,
299,480,
304,482,
309,484,
311,484,
314,487,
314,488,
316,484,
322,482,
321,483,
322,481,
318,476,
322,474,
323,469,
323,465,
324,462,
323,454,
319,448,
319,445,
320,440,
317,436,
311,428,
309,424,
310,415,
307,410,
299,406,
295,400,
292,394,
289,385,
289,381,
282,378,
281,373,
274,368,
277,360,
271,356,
267,351,
264,347,
258,343,
256,338,
253,333,
249,334,
242,331,
238,327,
238,323,
234,323,
231,319,
227,319,
226,318,
227,315,
225,316,
223,317,
218,318,
214,316,
218,318,
215,319,
214,322,
209,322,
210,324,
210,324,
213,326,
212,330,
204,330,
207,334,
207,335,
206,337,
207,341,
207,344,
204,345,
204,347,
208,349,
209,348,
209,352,
209,356,
210,355,
214,357,
215,359,
215,361,
217,362,
219,363,
221,361,
223,364,
220,364,
222,367,
221,366,
225,364,
227,367,
223,369,
222,367,
222,367,
224,368,
227,372,
228,376,
224,378,
226,388,
223,392,
228,406,
231,421,
229,440,
228,459,
237,483,
244,509,
252,543,
258,578,
269,614,
286,650,
306,692,
326,733,
349,776,
368,813,
395,854,
424,894,
447,931,
474,968,
499,991,
527,992,
553,992,
579,992,
601,991,
623,992,
646,992,
647,991,
645,992,
646,992,
647,992,
645,992,
646,992,
646,992,
646,992,
645,993,
646,992,
644,992,
645,992,
646,992,
646,991,
645,991,
645,992,
646,993,
646,992,
645,993,
647,992,
646,992,
647,992,
646,992,
646,993,
646,992,
645,992,
645,992,
645,992,
646,988,
645,958,
645,931,
646,908,
646,881,
646,854,
646,829,
646,795,
646,768,
623,739,
605,710,
579,678,
565,650,
542,623,
522,596,
500,567,
482,538,
466,515,
438,493,
425,474,
407,455,
387,439,
371,422,
356,410,
340,404,
329,393,
315,384,
307,381,
302,379,
292,375,
284,376,
277,377,
271,377,
272,380,
271,387,
268,391,
266,394,
269,399,
272,407,
272,414,
272,418,
278,426,
283,430,
284,438,
288,440,
292,447,
290,452,
298,453,
306,456,
305,460,
306,462,
308,463,
312,461,
316,460,
317,462,
317,458,
318,456,
318,452,
320,450,
322,448,
318,442,
316,439,
315,427,
314,422,
313,415,
307,411,
301,403,
296,396,
296,387,
297,382,
293,375,
289,368,
280,359,
276,350,
276,349,
267,341,
267,337,
260,331,
260,323,
255,320,
249,313,
248,312,
239,306,
237,300,
234,299,
231,296,
226,292,
219,289,
220,288,
218,286,
215,285,
211,284,
208,284,
208,281,
209,280,
205,280,
199,280,
199,279,
198,277,
202,278,
198,279,
192,278,
191,281,
189,279,
192,281,
189,283,
186,281,
181,285,
182,286,
188,288,
181,291,
183,293,
183,294,
183,294,
181,295,
184,299,
182,302,
181,305,
182,306,
184,307,
182,308,
181,312,
182,316,
186,316,
186,317,
188,321,
189,324,
189,327,
188,327,
192,328,
192,333,
194,335,
189,336,
196,341,
196,341,
202,342,
202,344,
203,345,
200,349,
206,348,
207,349,
210,351,
209,354,
209,351,
211,353,
215,354,
213,355,
214,354,
215,355,
215,352,
216,355,
216,355,
213,356,
213,355,
214,354,
217,355,
215,355,
213,355,
213,356,
212,355,
212,357,
212,358,
209,355,
208,355,
211,354,
212,357,
210,356,
205,356,
207,355,
207,354,
211,354,
207,355,
206,354,
205,354,
206,352,
203,352,
208,352,
210,352,
201,352,
202,350,
207,349,
208,351,
207,352,
207,351,
209,352,
209,350,
209,352,
205,354,
204,358,
205,360,
209,368,
209,378,
209,390,
205,402,
210,420,
214,440,
218,465,
220,494,
229,526,
231,560,
246,594,
260,634,
278,676,
293,718,
309,759,
334,799,
355,839,
382,880,
401,915,
428,948,
453,979,
481,992,
506,991,
529,992,
553,992,
576,992,
598,992,
617,991,
635,992,
646,992,
646,992,
646,991,
645,991,
646,992,
646,992,
646,992,
646,992,
646,991,
646,992,
645,991,
645,992,
645,991,
646,991,
646,992,
647,992,
646,991,
646,992,
644,975,
646,958,
646,940,
646,918,
646,899,
646,881,
646,866,
647,847,
646,827,
645,805,
646,789,
633,771,
621,752,
606,730,
591,707,
575,685,
560,667,
541,647,
528,622,
512,602,
497,583,
479,565,
459,546,
446,528,
429,507,
413,496,
402,483,
386,472,
374,458,
364,445,
350,437,
341,431,
329,428,
319,421,
315,419,
306,416,
297,419,
292,420,
290,420,
286,420,
286,421,
280,425,
280,431,
278,435,
281,439,
283,443,
286,450,
286,454,
288,458,
290,461,
299,465,
299,470,
299,474,
300,476,
304,478,
310,479,
309,480,
307,480,
310,483,
313,480,
315,481,
318,480,
316,478,
314,476,
314,471,
317,466,
316,462,
314,460,
308,456,
311,448,
312,443,
306,435,
303,434,
299,426,
298,419,
298,412,
294,406,
290,400,
286,395,
284,389,
281,382,
277,376,
275,373,
268,367,
267,362,
263,354,
262,352,
260,347,
254,341,
251,338,
246,329,
248,329,
241,328,
240,324,
239,321,
238,317,
232,316,
234,313,
232,312,
228,308,
227,307,
231,309,
228,310,
223,307,
221,309,
222,307,
216,306,
219,310,
217,311,
215,310,
211,310,
212,311,
214,312,
210,316,
208,317,
204,318,
209,320,
207,321,
202,323,
203,323,
201,325,
205,327,
201,332,
203,331,
198,335,
204,334,
206,334,
208,340,
206,342,
208,342,
206,344,
208,344,
208,343,
209,350,
207,351,
211,351,
214,352,
213,355,
211,355,
209,356,
212,358,
215,355,
211,358,
214,358,
213,358,
214,358,
215,357,
215,358,
214,360,
210,356,
213,360,
211,356,
215,359,
213,359,
216,360,
213,355,
217,359,
216,359,
217,361,
213,362,
211,361,
213,364,
214,362,
214,362,
214,366,
210,363,
215,363,
215,364,
217,367,
217,367,
215,367,
217,366,
218,364,
216,367,
212,369,
211,369,
215,367,
212,365,
216,367,
216,367,
213,368,
215,367,
211,365,
211,368,
208,364,
211,366,
209,364,
216,364,
211,364,
213,365,
210,364,
211,362,
215,362,
211,367,
212,365,
212,364,
214,362,
216,364,
215,367,
212,372,
209,373,
209,378,
217,388,
215,399,
212,413,
216,430,
219,446,
224,469,
228,494,
237,525,
242,558,
253,590,
263,623,
279,660,
296,700,
310,735,
330,772,
348,805,
370,840,
396,875,
419,906,
440,931,
466,958,
489,981,
513,992,
533,992,
554,991,
573,992,
594,992,
604,993,
619,991,
629,992,
644,991,
645,992,
645,991,
646,992,
647,991,
645,991,
645,973,
646,956,
646,937,
646,920,
646,898,
645,878,
646,859,
645,839,
646,820,
646,800,
640,780,
625,760,
619,741,
606,724,
592,706,
585,687,
571,671,
557,659,
544,641,
528,626,
520,611,
506,598,
493,585,
475,570,
466,553,
454,539,
442,529,
428,514,
414,501,
405,487,
393,473,
382,463,
367,453,
357,441,
344,431,
337,422,
330,416,
317,409,
310,406,
304,403,
294,395,
289,397,
284,398,
277,398,
270,394,
270,398,
267,401,
265,404,
262,408,
265,411,
266,417,
270,423,
271,428,
270,433,
273,436,
278,442,
280,451,
278,453,
279,460,
282,464,
286,470,
292,472,
295,477,
291,477,
294,480,
297,479,
301,482,
302,484,
301,481,
302,481,
305,480,
306,480,
308,476,
303,474,
304,474,
305,468,
308,465,
299,464,
303,459,
300,455,
300,448,
302,443,
299,440,
295,436,
293,431,
293,426,
291,418,
290,414,
286,409,
282,404,
279,397,
281,391,
277,387,
273,382,
271,378,
268,371,
267,366,
264,364,
264,363,
257,356,
253,354,
248,349,
249,346,
246,345,
240,340,
238,342,
234,333,
234,336,
231,335,
228,334,
222,330,
223,330,
222,330,
220,328,
213,331,
214,329,
210,329,
212,328,
214,331,
210,333,
207,332,
210,333,
204,333,
207,337,
204,338,
205,340,
206,340,
209,341,
210,345,
207,346,
204,349,
206,349,
210,351,
212,353,
206,355,
208,355,
207,358,
211,360,
209,363,
207,364,
206,364,
203,368,
212,369,
207,373,
208,375,
204,376,
207,374,
211,377,
210,378,
211,382,
207,384,
215,382,
216,385,
217,385,
219,389,
219,389,
220,390,
222,390,
224,392,
225,395,
223,397,
223,395,
223,394,
226,397,
223,398,
225,397,
226,398,
226,394,
229,398,
229,398,
224,399,
226,397,
227,395,
226,395,
221,397,
221,397,
223,395,
222,394,
220,395,
223,395,
220,393,
214,394,
221,390,
217,389,
222,392,
221,393,
220,394,
222,392,
222,393,
222,395,
219,399,
220,404,
217,408,
226,419,
225,429,
224,441,
229,459,
232,477,
236,499,
244,525,
247,552,
256,584,
267,613,
282,647,
292,683,
308,713,
321,745,
341,777,
359,810,
373,838,
394,865,
416,890,
436,911,
459,929,
478,945,
498,958,
515,969,
533,975,
552,976,
562,980,
578,978,
584,972,
596,965,
608,951,
613,941,
618,927,
620,910,
626,892,
621,871,
626,854,
623,834,
620,813,
611,792,
605,766,
602,749,
591,728,
581,707,
568,687,
563,666,
551,646,
542,630,
527,611,
513,597,
503,578,
494,565,
480,549,
467,535,
454,523,
446,507,
435,494,
420,481,
410,471,
399,459,
387,447,
381,437,
368,427,
358,418,
346,410,
337,402,
327,395,
320,390,
310,386,
302,382,
295,379,
288,378,
284,379,
274,378,
269,382,
263,382,
262,388,
260,390,
255,397,
254,402,
252,405,
256,412,
254,418,
253,426,
256,435,
258,442,
263,445,
260,452,
266,463,
267,467,
271,475,
275,479,
276,484,
287,492,
285,497,
286,498,
293,500,
298,503,
301,503,
301,505,
306,505,
306,502,
308,504,
313,504,
311,502,
314,498,
318,495,
319,492,
315,486,
309,487,
310,478,
309,475,
309,471,
306,466,
301,462,
299,455,
300,451,
297,445,
293,441,
293,436,
289,430,
288,424,
285,419,
281,416,
279,410,
277,407,
277,400,
276,399,
272,394,
268,389,
265,383,
263,381,
263,378,
256,377,
251,371,
251,372,
247,369,
250,364,
244,362,
244,363,
241,360,
241,359,
238,359,
238,359,
234,357,
233,356,
232,352,
230,351,
229,353,
228,355,
222,354,
220,354,
220,354,
215,356,
214,357,
214,360,
212,358,
212,359,
212,362,
210,364,
207,362,
207,367,
206,366,
210,369,
208,372,
209,374,
205,377,
209,375,
213,379,
210,384,
209,384,
208,384,
215,386,
212,389,
214,391,
214,394,
210,396,
214,396,
217,397,
214,402,
215,403,
216,401,
216,403,
214,403,
218,406,
220,406,
212,408,
223,405,
217,404,
222,406,
221,409,
224,408,
229,407,
227,408,
228,409,
225,407,
226,407,
228,405,
229,407,
231,406,
227,407,
225,408,
224,411,
231,412,
226,417,
229,423,
233,429,
232,437,
235,447,
238,462,
239,482,
245,500,
248,521,
259,548,
264,577,
278,609,
285,639,
298,670,
315,700,
332,732,
346,765,
364,799,
385,826,
405,853,
426,880,
445,904,
464,923,
486,943,
505,953,
524,968,
545,978,
564,985,
578,987,
595,987,
607,985,
616,980,
628,973,
632,961,
641,951,
644,939,
644,927,
646,907,
646,892,
645,871,
643,853,
640,836,
634,818,
626,797,
623,773,
614,754,
604,736,
591,715,
578,695,
567,675,
560,659,
547,644,
530,627,
515,614,
504,599,
495,586,
485,573,
468,559,
458,549,
451,536,
442,526,
428,517,
418,506,
406,493,
392,480,
388,471,
379,465,
370,453,
357,445,
354,434,
347,428,
340,422,
332,418,
319,411,
317,405,
311,401,
305,399,
298,400,
290,396,
284,396,
283,398,
280,399,
279,402,
273,405,
273,406,
269,412,
270,417,
266,422,
268,429,
268,435,
266,437,
269,444,
266,450,
269,460,
268,463,
275,468,
278,472,
281,480,
281,486,
283,486,
288,489,
294,494,
293,496,
296,498,
297,497,
302,498,
304,498,
302,499,
307,498,
308,496,
308,493,
313,489,
311,489,
307,484,
307,481,
307,475,
308,473,
310,468,
303,463,
298,459,
304,452,
302,449,
299,446,
295,437,
292,434,
290,427,
292,423,
288,417,
283,414,
278,409,
279,403,
277,399,
274,392,
271,389,
267,384,
263,380,
266,376,
267,377,
262,371,
258,369,
255,365,
254,365,
254,362,
250,361,
247,360,
239,358,
242,356,
240,356,
237,355,
234,353,
234,352,
229,349,
232,354,
229,354,
228,355,
229,355,
225,354,
225,357,
222,357,
221,357,
217,359,
220,359,
222,359,
216,363,
219,364,
216,364,
217,362,
218,365,
217,368,
216,369,
216,370,
216,371,
213,373,
215,376,
213,377,
212,379,
212,378,
215,381,
213,381,
209,383,
205,385,
208,387,
213,389,
212,390,
209,391,
210,393,
211,394,
219,395,
217,400,
217,400,
212,399,
218,403,
222,403,
222,407,
222,408,
221,406,
222,407,
227,407,
229,406,
229,410,
229,412,
231,411,
234,410,
234,412,
231,412,
229,412,
233,414,
234,413,
235,412,
232,417,
230,415,
232,412,
231,411,
234,412,
234,414,
232,412,
235,414,
232,408,
237,413,
233,413,
236,417,
233,419,
234,420,
230,421,
234,430,
238,436,
235,443,
241,457,
241,472,
240,489,
244,509,
249,533,
256,559,
265,587,
274,621,
283,652,
295,684,
309,719,
328,754,
344,788,
361,818,
378,850,
406,876,
426,905,
449,929,
468,950,
491,968,
512,981,
538,991,
557,992,
571,991,
588,992,
602,992,
620,992,
631,992,
639,991,
645,979,
645,963,
646,951,
645,935,
645,919,
646,901,
645,882,
645,862,
645,844,
646,823,
646,803,
645,782,
639,761,
632,743,
622,724,
611,704,
600,684,
589,665,
579,649,
566,634,
551,620,
536,607,
527,589,
517,578,
503,566,
490,554,
476,543,
468,531,
458,520,
439,513,
430,504,
421,492,
411,480,
403,474,
393,464,
380,456,
369,447,
365,438,
354,435,
344,430,
339,423,
321,417,
322,416,
312,407,
310,410,
303,408,
292,406,
290,407,
290,409,
287,410,
280,412,
275,415,
277,417,
279,422,
275,427,
271,431,
272,434,
273,440,
277,447,
274,451,
280,457,
276,463,
276,465,
282,469,
283,474,
285,479,
287,484,
290,487,
296,489,
295,495,
299,494,
301,496,
306,496,
310,494,
311,494,
311,494,
310,494,
310,491,
312,487,
312,485,
313,484,
308,481,
309,478,
310,471,
309,470,
306,466,
306,461,
305,455,
302,447,
305,446,
299,443,
296,437,
295,433,
294,427,
290,421,
289,418,
288,413,
283,409,
281,401,
282,399,
278,398,
272,392,
270,388,
268,384,
263,382,
264,381,
260,376,
256,374,
256,370,
253,366,
248,365,
249,362,
244,360,
247,359,
246,359,
241,358,
239,356,
232,356,
237,353,
240,356,
235,353,
232,353,
229,356,
227,355,
225,353,
227,355,
223,358,
223,359,
223,358,
221,361,
222,362,
221,366,
216,365,
214,363,
216,365,
216,368,
213,372,
212,372,
205,373,
210,372,
212,376,
211,377,
209,378,
209,379,
211,378,
208,382,
213,385,
211,385,
213,388,
212,386,
217,391,
217,392,
218,397,
215,399,
220,397,
218,398,
217,399,
218,402,
220,401,
222,402,
225,405,
224,408,
221,407,
224,407,
225,408,
228,410,
229,411,
228,414,
228,412,
232,412,
233,413,
234,410,
232,414,
232,412,
232,412,
236,413,
232,413,
236,412,
238,414,
239,411,
241,414,
239,416,
234,412,
236,414,
233,413,
237,415,
238,416,
236,422,
234,426,
235,431,
238,440,
239,449,
237,461,
240,475,
242,491,
249,511,
251,533,
254,560,
262,586,
272,618,
288,651,
300,683,
310,718,
324,750,
343,781,
363,811,
384,841,
401,870,
425,891,
447,913,
466,932,
491,949,
515,962,
531,972,
551,977,
568,979,
589,982,
601,979,
613,974,
627,964,
639,954,
646,941,
645,928,
646,912,
645,894,
645,873,
645,856,
646,834,
646,812,
645,790,
645,768,
641,746,
627,725,
623,704,
612,684,
601,664,
591,645,
579,625,
563,607,
552,590,
544,574,
528,561,
515,549,
502,533,
489,524,
476,510,
463,496,
453,489,
438,477,
425,468,
415,459,
404,448,
394,438,
382,435,
366,428,
355,417,
350,412,
340,405,
330,402,
320,398,
309,392,
305,390,
299,390,
293,390,
285,390,
280,391,
275,392,
271,395,
267,402,
265,406,
264,411,
263,414,
264,420,
268,429,
260,433,
264,439,
264,445,
271,451,
272,461,
274,468,
275,472,
281,478,
283,482,
288,489,
290,494,
292,499,
296,503,
298,506,
305,508,
306,510,
310,512,
316,510,
316,514,
315,514,
317,511,
318,511,
321,509,
325,508,
324,507,
322,502,
321,499,
322,494,
322,488,
322,488,
318,481,
316,477,
316,470,
317,465,
314,464,
310,455,
310,453,
310,444,
308,440,
305,439,
302,433,
300,430,
296,423,
295,420,
294,418,
289,413,
285,410,
284,406,
283,401,
274,399,
277,397,
268,394,
268,391,
262,390,
261,387,
259,386,
251,383,
249,382,
249,378,
249,378,
246,379,
241,377,
242,376,
239,375,
236,375,
239,374,
236,372,
233,374,
233,369,
234,373,
233,375,
233,376,
228,371,
229,374,
227,374,
225,375,
225,376,
225,379,
225,377,
227,380,
223,381,
223,383,
222,385,
226,385,
226,387,
221,390,
217,389,
217,389,
217,394,
220,392,
219,396,
218,397,
218,400,
221,399,
221,403,
221,403,
217,402,
220,404,
222,404,
221,406,
226,408,
225,406,
225,410,
225,409,
227,408,
232,410,
233,412,
230,410,
228,412,
234,411,
234,415,
238,416,
233,415,
237,416,
236,417,
232,416,
236,420,
231,423,
236,427,
238,430,
241,436,
241,445,
241,454,
242,465,
246,477,
250,497,
252,516,
256,538,
265,565,
272,591,
285,621,
296,654,
308,683,
320,712,
339,746,
357,779,
375,807,
391,834,
413,860,
436,882,
459,902,
479,922,
499,938,
515,950,
541,959,
559,967,
575,971,
588,973,
604,973,
623,966,
634,958,
641,950,
644,937,
646,923,
644,907,
644,890,
645,875,
646,856,
645,835,
646,813,
645,792,
646,774,
645,749,
635,729,
627,711,
620,689,
609,670,
596,654,
583,635,
569,617,
557,601,
545,586,
532,572,
519,559,
504,544,
492,530,
477,522,
462,509,
449,499,
438,487,
427,476,
416,470,
402,460,
383,449,
375,443,
366,432,
356,427,
346,420,
335,416,
326,410,
316,403,
313,400,
300,398,
296,397,
291,397,
283,392,
281,396,
274,397,
271,404,
264,404,
264,408,
267,412,
263,419,
262,424,
259,431,
262,435,
264,443,
263,448,
266,455,
269,461,
273,468,
276,473,
278,481,
281,486,
282,490,
291,494,
291,497,
297,499,
299,505,
302,508,
304,508,
310,510,
313,512,
315,510,
320,511,
324,510,
328,510,
329,510,
328,505,
326,504,
325,498,
328,496,
329,491,
326,490,
320,485,
321,478,
321,475,
318,469,
315,466,
312,459,
313,455,
314,448,
307,443,
305,440,
302,438,
296,431,
298,424,
295,422,
294,421,
290,416,
288,410,
289,405,
285,402,
280,399,
269,394,
271,394,
268,386,
268,388,
265,385,
258,383,
258,384,
258,379,
257,379,
251,378,
250,374,
248,375,
247,374,
246,369,
245,371,
239,372,
241,368,
237,369,
239,372,
237,372,
230,369,
226,371,
226,369,
226,371,
222,373,
220,372,
218,374,
218,374,
221,376,
218,377,
216,377,
215,380,
217,379,
219,382,
216,385,
214,384,
217,388,
215,388,
218,389,
221,392,
218,397,
214,398,
218,399,
218,400,
220,403,
217,404,
218,406,
219,407,
220,408,
221,408,
218,413,
219,410,
219,414,
225,413,
225,415,
225,416,
227,416,
228,415,
230,416,
233,418,
233,418,
230,419,
233,418,
234,418,
238,420,
236,420,
238,420,
233,421,
236,415,
242,420,
236,420,
239,422,
239,421,
242,425,
242,425,
243,430,
241,435,
241,441,
243,447,
245,462,
241,475,
244,490,
247,509,
252,529,
260,556,
265,585,
271,615,
280,646,
292,680,
308,711,
325,745,
341,779,
359,809,
379,838,
404,866,
429,891,
453,914,
477,937,
502,953,
525,969,
552,983,
571,990,
589,991,
612,991,
627,991,
643,992,
646,985,
646,977,
647,963,
646,952,
646,938,
644,924,
646,907,
646,889,
645,871,
646,856,
645,832,
646,811,
645,791,
645,769,
646,749,
645,730,
645,710,
647,689,
645,670,
640,654,
628,639,
609,622,
598,607,
582,590,
571,579,
557,567,
541,556,
527,545,
516,529,
502,520,
486,507,
471,498,
458,488,
445,478,
435,470,
423,462,
407,454,
392,445,
383,436,
376,431,
361,427,
352,423,
338,417,
331,414,
320,410,
317,409,
303,412,
298,410,
292,410,
287,411,
281,414,
278,418,
276,422,
275,425,
276,431,
275,436,
273,440,
272,447,
276,451,
280,457,
284,461,
282,469,
283,474,
288,478,
293,482,
297,487,
295,492,
292,499,
299,500,
304,502,
304,508,
305,506,
306,508,
308,510,
313,510,
314,510,
314,510,
316,509,
318,507,
320,503,
320,502,
321,500,
316,496,
321,493,
320,487,
321,486,
321,484,
318,477,
316,474,
314,465,
317,464,
314,460,
310,455,
308,454,
307,445,
305,441,
303,436,
295,433,
295,430,
294,422,
289,419,
290,414,
284,410,
281,404,
282,400,
274,396,
275,396,
272,393,
269,390,
266,387,
265,383,
258,383,
257,381,
254,378,
253,374,
252,374,
252,375,
249,371,
244,368,
246,368,
245,367,
242,371,
237,367,
235,370,
235,368,
231,369,
234,370,
228,370,
226,370,
224,371,
223,372,
222,371,
220,373,
219,374,
219,374,
218,375,
219,377,
218,380,
218,383,
212,382,
216,385,
215,388,
215,390,
210,393,
210,394,
214,395,
216,397,
216,399,
215,400,
216,402,
220,400,
221,405,
223,406,
224,408,
226,409,
228,406,
229,411,
230,412,
228,412,
226,410,
235,412,
232,416,
236,415,
234,415,
236,415,
234,415,
234,416,
233,418,
235,417,
235,417,
236,416,
237,416,
233,416,
234,417,
233,417,
232,415,
231,419,
234,420,
231,422,
227,424,
234,428,
236,433,
238,441,
234,453,
238,466,
240,480,
245,498,
253,520,
256,546,
263,573,
268,604,
284,633,
295,669,
307,700,
324,734,
337,764,
361,796,
376,828,
402,856,
421,883,
442,906,
471,927,
496,947,
516,963,
537,976,
558,984,
582,988,
601,991,
618,991,
631,986,
644,978,
645,970,
645,961,
644,948,
645,933,
645,919,
645,896,
646,883,
645,865,
645,842,
647,819,
645,800,
645,778,
645,757,
644,737,
646,715,
645,692,
640,674,
627,654,
612,637,
596,615,
587,600,
569,587,
556,572,
541,560,
528,543,
514,532,
502,518,
485,505,
469,497,
456,485,
440,470,
430,464,
417,455,
400,444,
387,436,
376,427,
365,420,
356,416,
342,407,
331,405,
326,401,
312,397,
304,396,
298,397,
287,395,
283,396,
281,399,
276,403,
272,410,
269,411,
265,416,
267,421,
261,428,
264,434,
265,439,
266,448,
265,453,
270,462,
271,469,
274,477,
279,481,
280,485,
286,493,
291,497,
291,502,
297,506,
300,507,
302,512,
309,515,
311,520,
313,521,
319,515,
321,518,
319,519,
321,521,
321,516,
327,514,
327,513,
327,509,
325,506,
323,501,
328,497,
328,495,
325,491,
324,485,
320,480,
320,475,
320,471,
316,466,
313,461,
308,452,
307,450,
309,444,
304,440,
297,434,
294,431,
295,425,
291,421,
288,419,
280,413,
277,409,
275,406,
275,402,
271,396,
270,394,
266,391,
263,387,
265,384,
264,381,
263,379,
257,379,
257,375,
258,372,
255,373,
253,371,
249,369,
248,368,
248,367,
246,367,
245,368,
241,366,
235,366,
239,365,
240,368,
240,371,
230,368,
232,371,
233,370,
235,374,
230,375,
227,376,
228,378,
228,376,
229,381,
228,382,
225,383,
224,385,
226,385,
227,387,
226,389,
220,390,
222,392,
226,392,
225,394,
225,398,
221,397,
222,398,
227,398,
223,400,
225,403,
228,401,
223,401,
225,402,
229,402,
223,403,
228,402,
225,402,
227,402,
227,403,
222,405,
221,405,
221,407,
218,407,
225,410,
223,411,
219,413,
220,419,
221,423,
223,431,
223,442,
225,453,
226,469,
230,484,
236,503,
243,525,
249,555,
256,580,
267,611,
279,642,
292,677,
306,710,
320,744,
342,774,
364,806,
386,836,
406,867,
426,893,
454,917,
479,935,
502,956,
525,973,
544,985,
569,991,
588,991,
612,991,
628,992,
643,991,
646,992,
646,982,
645,973,
645,963,
646,951,
646,935,
645,920,
646,905,
645,885,
646,867,
645,846,
645,826,
645,807,
644,787,
644,766,
645,747,
646,725,
645,706,
646,689,
645,671,
631,656,
619,638,
608,620,
592,607,
576,591,
560,577,
545,562,
528,552,
517,540,
499,526,
486,514,
473,502,
462,489,
444,479,
429,469,
415,461,
403,451,
393,440,
378,436,
365,430,
353,422,
341,412,
336,409,
324,407,
312,403,
303,400,
295,398,
293,396,
285,397,
283,398,
274,400,
270,400,
267,404,
268,410,
264,414,
261,421,
262,424,
262,431,
265,436,
269,442,
263,447,
269,455,
271,457,
276,464,
276,472,
282,478,
282,481,
288,485,
293,489,
296,493,
299,497,
299,500,
309,500,
311,502,
306,503,
311,504,
311,499,
315,501,
315,500,
314,499,
314,500,
315,496,
316,492,
319,490,
317,486,
315,482,
314,477,
313,472,
315,468,
312,462,
310,459,
308,455,
307,448,
303,441,
302,438,
295,431,
294,428,
293,422,
292,416,
289,412,
284,408,
282,405,
282,398,
279,393,
277,389,
273,388,
270,385,
269,380,
268,376,
266,375,
260,374,
258,370,
255,365,
254,362,
253,362,
247,362,
248,362,
244,359,
244,357,
242,358,
237,359,
234,357,
236,358,
235,356,
233,358,
227,360,
228,358,
226,358,
223,355,
225,360,
222,364,
219,362,
218,364,
219,365,
218,366,
216,368,
211,368,
212,368,
213,370,
211,373,
213,373,
212,377,
214,378,
215,378,
215,379,
217,386,
213,388,
211,387,
213,389,
215,391,
214,395,
211,395,
213,396,
215,395,
218,397,
213,401,
214,400,
215,403,
216,402,
218,402,
220,405,
222,403,
220,405,
220,409,
226,406,
225,409,
225,411,
225,409,
225,408,
228,408,
229,408,
226,411,
222,410,
222,408,
231,407,
224,408,
228,409,
226,409,
226,409,
229,407,
228,409,
227,411,
224,414,
227,417,
228,419,
230,427,
230,435,
228,445,
226,458,
232,470,
238,491,
238,512,
247,539,
253,565,
263,596,
276,631,
285,663,
299,701,
310,735,
330,767,
352,802,
372,837,
393,866,
411,897,
438,919,
463,946,
484,966,
507,984,
530,992,
556,992,
578,992,
600,992,
616,992,
634,992,
645,991,
644,992,
645,991,
646,991,
646,977,
646,963,
645,949,
646,933,
645,911,
645,893,
646,876,
645,856,
646,835,
645,814,
646,794,
646,769,
645,748,
645,729,
646,709,
645,690,
645,672,
645,653,
634,638,
620,623,
604,608,
591,592,
577,575,
559,565,
543,551,
526,538,
510,526,
496,512,
483,503,
465,492,
452,481,
438,470,
425,457,
414,450,
400,441,
385,432,
375,426,
359,416,
353,413,
341,408,
330,407,
319,402,
314,401,
303,401,
298,402,
295,401,
285,403,
281,406,
279,407,
273,411,
269,415,
266,422,
269,425,
269,429,
270,439,
269,446,
270,450,
273,457,
276,462,
278,470,
276,475,
281,481,
283,486,
289,489,
286,495,
291,498,
294,503,
296,505,
302,508,
305,511,
305,509,
306,513,
309,511,
312,510,
312,510,
314,508,
315,505,
317,501,
319,497,
320,495,
318,494,
319,489,
318,482,
320,477,
319,474,
315,469,
313,463,
312,455,
315,451,
305,447,
305,444,
303,439,
300,432,
300,425,
297,421,
290,417,
287,411,
289,407,
281,400,
281,396,
278,395,
276,391,
268,388,
270,378,
267,379,
263,376,
257,372,
253,370,
254,368,
253,365,
250,366,
242,366,
240,362,
239,360,
238,358,
238,360,
232,362,
227,359,
230,359,
229,359,
226,356,
228,360,
222,359,
225,360,
227,359,
224,361,
223,362,
220,361,
221,363,
222,364,
218,366,
216,366,
218,370,
218,370,
219,372,
224,372,
218,375,
217,378,
218,376,
221,380,
216,382,
217,382,
218,384,
218,385,
223,386,
222,390,
220,394,
216,393,
221,394,
223,393,
220,398,
223,402,
220,401,
224,401,
226,401,
228,407,
227,406,
228,408,
225,407,
227,407,
231,409,
231,411,
230,412,
234,412,
231,409,
233,413,
233,414,
233,414,
231,411,
234,414,
232,413,
234,414,
233,415,
236,415,
233,413,
239,411,
237,416,
235,414,
234,413,
239,412,
236,412,
235,414,
235,415,
228,415,
228,416,
232,418,
233,422,
229,425,
230,431,
233,436,
235,445,
236,457,
237,473,
239,490,
243,510,
249,534,
256,561,
263,589,
267,625,
284,657,
295,689,
312,726,
325,761,
345,794,
363,825,
384,857,
410,886,
429,911,
452,934,
475,955,
503,972,
524,986,
543,992,
566,991,
585,992,
608,992,
624,991,
638,991,
646,992,
646,978,
646,962,
645,951,
645,934,
645,915,
647,898,
645,874,
646,857,
645,836,
644,812,
645,793,
645,768,
646,747,
644,728,
646,708,
646,686,
635,665,
623,645,
612,627,
594,608,
585,590,
570,572,
557,560,
542,546,
526,531,
509,516,
502,503,
483,492,
470,482,
457,469,
437,458,
425,448,
412,439,
394,432,
384,422,
372,415,
364,408,
352,403,
340,401,
329,396,
319,393,
311,389,
302,390,
296,392,
287,390,
280,394,
275,396,
273,399,
268,408,
264,411,
259,418,
262,421,
263,428,
263,436,
260,443,
260,449,
263,457,
269,464,
269,470,
275,479,
271,487,
277,493,
287,496,
287,501,
289,506,
290,507,
295,510,
299,512,
304,514,
309,518,
307,517,
311,517,
315,512,
319,512,
319,512,
321,508,
320,509,
326,503,
324,501,
323,496,
322,493,
321,490,
322,482,
323,480,
320,475,
317,470,
314,465,
313,455,
314,453,
312,448,
309,443,
304,438,
303,434,
304,430,
299,424,
293,419,
291,415,
288,408,
288,406,
283,401,
282,400,
277,396,
274,394,
272,391,
273,391,
266,385,
267,385,
264,379,
264,377,
262,376,
258,375,
254,371,
250,371,
248,371,
248,370,
246,368,
244,365,
243,365,
243,364,
237,365,
238,364,
232,365,
233,363,
234,364,
231,365,
232,365,
229,367,
228,367,
228,368,
226,369,
227,371,
222,372,
221,374,
221,371,
222,374,
222,376,
222,377,
222,379,
219,377,
224,383,
221,384,
220,388,
220,386,
222,389,
222,390,
220,392,
218,395,
218,393,
218,394,
217,397,
218,399,
216,400,
214,401,
221,402,
218,404,
216,405,
218,407,
217,407,
220,408,
222,409,
218,412,
221,410,
222,410,
222,410,
229,411,
227,413,
223,412,
225,413,
225,412,
230,414,
232,415,
229,412,
231,415,
226,418,
236,419,
229,422,
237,424,
234,429,
233,433,
239,442,
235,452,
242,468,
244,482,
249,497,
254,519,
261,546,
266,573,
275,604,
280,634,
295,666,
310,700,
324,736,
340,771,
357,802,
377,833,
399,863,
421,891,
441,915,
465,938,
487,957,
514,977,
535,990,
559,992,
577,992,
599,992,
619,992,
634,992,
647,992,
646,991,
646,991,
645,979,
646,966,
645,953,
645,934,
645,918,
646,902,
645,883,
646,863,
646,845,
645,823,
646,803,
646,783,
646,762,
646,743,
645,721,
646,701,
645,686,
644,668,
627,651,
619,633,
605,620,
587,605,
568,589,
558,577,
542,563,
530,552,
515,539,
500,527,
483,515,
466,501,
457,492,
445,479,
430,474,
417,464,
404,454,
394,445,
381,439,
366,432,
355,425,
344,419,
337,413,
327,409,
313,406,
305,406,
300,400,
295,401,
290,402,
283,403,
277,407,
276,407,
273,408,
272,413,
267,419,
268,422,
269,429,
269,429,
271,441,
268,445,
271,453,
271,458,
278,462,
280,468,
282,473,
284,478,
284,482,
288,486,
294,490,
297,493,
298,499,
302,500,
305,500,
310,500,
310,502,
308,502,
310,498,
314,501,
317,499,
316,494,
314,494,
315,492,
318,486,
321,486,
318,483,
316,479,
316,475,
315,469,
317,464,
316,462,
312,453,
311,451,
310,444,
309,441,
310,436,
306,432,
304,426,
303,422,
301,415,
296,412,
295,407,
290,402,
288,396,
289,393,
282,389,
280,386,
271,383,
267,377,
270,375,
263,374,
255,369,
249,365,
250,362,
247,359,
246,358,
242,357,
237,354,
233,351,
233,350,
232,352,
229,351,
226,350,
217,350,
220,346,
220,348,
216,351,
215,351,
212,348,
217,350,
214,352,
209,352,
210,355,
210,353,
212,356,
213,356,
214,358,
212,364,
210,364,
214,364,
214,367,
208,369,
211,372,
209,374,
211,375,
215,379,
211,381,
208,382,
212,385,
210,385,
214,388,
209,391,
211,392,
211,394,
214,395,
217,396,
219,401,
217,399,
216,402,
217,403,
224,404,
225,404,
223,406,
219,404,
219,403,
227,405,
225,407,
226,407,
225,407,
223,408,
227,408,
228,409,
226,408,
226,407,
226,407,
224,408,
227,409,
225,410,
223,410,
224,410,
226,411,
228,414,
226,422,
223,423,
224,432,
223,434,
228,449,
229,462,
229,475,
234,494,
241,513,
247,538,
254,565,
259,596,
269,625,
283,659,
295,693,
306,727,
324,763,
344,793,
364,826,
382,856,
410,886,
431,909,
450,933,
482,951,
504,969,
524,984,
548,991,
569,992,
594,992,
609,991,
628,992,
639,992,
646,982,
646,969,
645,957,
646,945,
645,926,
647,912,
645,890,
646,872,
645,853,
645,832,
646,810,
645,787,
647,764,
645,746,
646,723,
646,704,
646,681,
633,661,
621,644,
604,624,
591,609,
576,589,
561,572,
545,559,
533,544,
516,531,
503,517,
492,504,
476,494,
461,482,
446,471,
432,460,
419,450,
408,440,
395,435,
381,425,
369,419,
357,407,
344,404,
341,399,
327,397,
311,393,
311,389,
302,386,
295,387,
284,388,
272,389,
276,389,
272,392,
261,397,
261,401,
259,407,
263,410,
260,417,
258,426,
263,430,
258,438,
262,445,
264,451,
264,458,
266,467,
271,472,
276,476,
284,484,
282,489,
285,492,
289,497,
292,498,
299,501,
298,508,
302,506,
306,511,
308,509,
314,510,
316,509,
315,511,
317,510,
317,507,
321,505,
325,506,
322,501,
322,499,
318,495,
326,489,
324,486,
321,482,
318,478,
313,470,
316,465,
318,458,
316,457,
312,450,
309,445,
307,438,
307,435,
303,430,
297,423,
295,420,
290,413,
290,411,
286,407,
278,404,
275,400,
277,392,
272,395,
268,392,
265,388,
257,384,
258,381,
258,378,
255,377,
252,376,
246,373,
249,371,
245,370,
246,369,
244,368,
239,366,
244,367,
241,367,
241,365,
238,368,
235,365,
234,367,
235,367,
236,370,
233,369,
230,372,
231,370,
230,373,
228,375,
224,374,
224,377,
223,377,
226,380,
227,380,
222,384,
221,385,
219,384,
223,384,
223,390,
220,389,
218,388,
220,390,
222,390,
221,393,
219,396,
219,397,
222,397,
219,397,
220,399,
218,400,
217,400,
213,400,
218,401,
217,403,
216,404,
212,403,
213,404,
219,404,
222,407,
221,413,
222,416,
223,420,
222,426,
228,439,
232,452,
234,467,
236,484,
245,503,
249,526,
258,553,
265,580,
274,609,
288,640,
304,673,
319,708,
333,737,
348,768,
368,797,
385,826,
407,855,
428,878,
450,898,
474,918,
496,934,
517,948,
536,959,
551,966,
570,967,
593,970,
609,970,
617,964,
629,955,
637,943,
645,933,
646,919,
645,901,
646,885,
644,865,
646,842,
645,824,
646,802,
643,781,
636,755,
633,734,
619,711,
609,691,
598,671,
587,648,
577,627,
562,610,
547,591,
532,574,
521,555,
509,539,
494,521,
478,509,
465,497,
450,482,
441,467,
426,456,
413,445,
397,433,
387,422,
372,409,
365,402,
354,394,
341,387,
330,378,
320,368,
315,370,
303,365,
294,365,
281,360,
281,362,
277,363,
270,365,
265,369,
261,371,
256,376,
252,384,
250,390,
251,399,
250,405,
251,413,
254,421,
251,431,
253,441,
255,446,
259,454,
264,462,
268,470,
266,477,
268,483,
281,488,
284,497,
287,501,
289,506,
294,510,
293,512,
303,514,
306,516,
306,515,
306,518,
312,517,
315,517,
315,520,
322,516,
319,513,
322,507,
324,508,
326,502,
327,499,
321,496,
323,490,
323,485,
325,482,
320,477,
321,472,
320,465,
318,461,
315,457,
313,453,
307,447,
306,442,
305,433,
298,427,
296,425,
291,422,
291,416,
286,412,
282,411,
279,406,
281,403,
275,398,
278,394,
278,394,
273,393,
269,392,
269,389,
268,386,
265,386,
263,384,
259,383,
255,383,
254,379,
254,379,
248,382,
245,379,
242,378,
246,377,
241,377,
241,377,
235,377,
234,379,
232,376,
235,377,
231,378,
229,377,
229,378,
227,376,
229,379,
227,380,
221,379,
222,380,
224,379,
225,382,
221,384,
222,383,
220,384,
221,381,
224,382,
220,382,
219,387,
217,389,
219,390,
221,392,
224,398,
222,406,
221,411,
219,422,
225,432,
229,449,
231,468,
232,488,
240,510,
250,535,
255,565,
263,598,
269,629,
289,663,
303,698,
323,732,
341,765,
357,797,
384,831,
405,855,
430,885,
456,910,
475,934,
499,952,
529,969,
550,983,
569,991,
588,991,
607,992,
629,991,
639,992,
645,992,
646,991,
645,981,
645,970,
645,957,
646,943,
646,928,
646,909,
645,892,
645,873,
645,854,
646,835,
646,815,
646,793,
644,773,
646,755,
645,733,
646,715,
646,695,
640,677,
631,659,
612,639,
597,624,
585,609,
573,592,
560,577,
542,564,
527,550,
511,534,
500,520,
484,509,
470,495,
452,483,
436,469,
426,457,
412,447,
396,436,
380,427,
372,415,
365,406,
351,400,
340,394,
328,390,
319,384,
314,381,
303,378,
293,378,
283,377,
274,380,
272,378,
271,384,
268,387,
261,391,
259,396,
258,399,
255,407,
257,417,
257,424,
255,430,
262,436,
264,445,
267,451,
273,458,
272,462,
280,468,
284,477,
284,484,
290,487,
291,492,
297,495,
302,498,
303,503,
305,504,
309,503,
310,504,
316,506,
320,507,
316,503,
320,501,
321,499,
325,496,
324,494,
321,490,
320,487,
320,483,
321,476,
320,472,
317,468,
317,462,
314,458,
311,453,
310,450,
307,444,
300,437,
300,430,
301,423,
296,422,
291,418,
288,411,
281,406,
284,400,
281,399,
277,395,
272,391,
266,385,
271,383,
267,379,
259,376,
255,375,
253,370,
255,366,
249,366,
243,366,
239,362,
241,361,
237,357,
238,361,
237,359,
235,358,
232,355,
235,356,
232,355,
226,359,
226,358,
222,355,
225,358,
225,359,
220,361,
221,364,
216,363,
220,361,
218,362,
219,365,
221,368,
217,370,
218,370,
216,372,
217,372,
215,375,
215,374,
213,372,
221,374,
218,376,
216,378,
217,378,
217,378,
222,379,
216,382,
213,381,
217,386,
216,388,
219,389,
221,394,
218,402,
214,408,
222,419,
225,434,
228,455,
231,474,
236,498,
243,521,
257,551,
257,582,
272,618,
287,655,
302,687,
320,725,
340,764,
358,800,
383,835,
409,867,
434,898,
462,929,
487,957,
511,982,
538,992,
561,991,
588,992,
612,992,
632,992,
646,992,
646,992,
645,992,
647,992,
646,992,
646,991,
645,993,
645,991,
646,992,
646,992,
645,991,
646,992,
646,974,
645,957,
647,941,
646,920,
646,899,
646,879,
646,861,
645,841,
646,816,
646,798,
645,778,
645,760,
645,743,
646,724,
646,703,
645,688,
645,672,
645,653,
646,638,
633,619,
619,604,
601,589,
582,569,
563,555,
548,538,
530,522,
509,506,
490,493,
472,479,
454,464,
438,452,
419,444,
404,432,
387,421,
374,412,
361,405,
343,400,
334,395,
319,390,
308,388,
299,383,
290,382,
282,385,
269,387,
268,389,
267,392,
259,395,
257,400,
252,404,
255,409,
253,414,
255,423,
257,430,
260,435,
260,442,
265,445,
267,454,
272,460,
274,466,
277,469,
282,475,
287,479,
290,482,
292,485,
295,487,
302,488,
304,488,
308,491,
309,493,
310,491,
316,490,
314,487,
317,485,
318,483,
310,480,
311,475,
316,469,
316,468,
313,461,
312,455,
307,450,
313,448,
311,442,
302,437,
301,430,
302,424,
298,417,
301,415,
296,408,
294,405,
288,399,
288,393,
281,388,
278,384,
272,380,
269,375,
266,369,
263,368,
258,364,
253,360,
246,357,
248,352,
247,351,
246,349,
236,347,
238,344,
237,341,
236,342,
235,343,
224,341,
228,337,
227,335,
227,336,
220,338,
219,337,
219,339,
217,336,
216,342,
214,342,
215,343,
208,345,
214,346,
208,349,
212,351,
207,353,
206,352,
207,355,
208,357,
206,358,
206,362,
204,363,
208,364,
208,364,
210,367,
207,372,
207,372,
208,370,
209,373,
209,375,
207,375,
209,378,
209,375,
214,376,
215,378,
211,379,
212,377,
212,377,
220,380,
219,380,
215,378,
216,379,
215,380,
219,381,
220,382,
221,382,
216,381,
218,385,
220,390,
222,394,
220,403,
220,414,
223,422,
230,440,
228,457,
232,482,
236,508,
246,535,
254,567,
266,602,
282,638,
293,675,
315,712,
336,749,
359,788,
381,824,
398,860,
431,892,
454,921,
482,954,
506,981,
536,991,
559,991,
585,992,
613,992,
632,992,
646,992,
646,991,
646,993,
646,992,
646,992,
646,992,
646,992,
645,992,
646,991,
644,992,
645,992,
645,991,
645,992,
645,973,
645,952,
646,932,
646,910,
646,890,
645,867,
646,845,
645,825,
646,801,
646,778,
645,757,
645,739,
646,717,
645,699,
646,679,
645,659,
636,644,
620,622,
602,607,
583,589,
570,571,
553,556,
533,540,
514,523,
494,503,
480,489,
461,471,
444,462,
426,450,
409,438,
400,427,
381,417,
366,410,
350,402,
338,395,
325,387,
314,385,
302,382,
293,381,
283,378,
280,377,
270,379,
261,382,
257,386,
255,386,
251,391,
254,399,
250,405,
250,411,
243,418,
251,421,
250,428,
254,438,
255,447,
260,451,
266,455,
270,460,
275,468,
277,472,
280,476,
289,478,
292,479,
295,484,
298,488,
301,491,
306,490,
309,490,
309,490,
314,490,
313,487,
312,483,
319,482,
320,482,
321,478,
317,473,
321,467,
321,462,
317,460,
312,454,
311,449,
308,443,
310,435,
308,430,
302,425,
298,419,
296,413,
293,406,
290,401,
287,397,
280,392,
278,384,
275,378,
273,376,
265,371,
260,365,
259,361,
253,355,
248,354,
245,350,
241,348,
234,342,
234,340,
234,340,
230,335,
224,334,
223,331,
224,330,
222,327,
219,328,
212,322,
215,325,
211,322,
214,325,
210,324,
209,325,
210,326,
211,327,
205,328,
211,331,
207,333,
207,335,
209,336,
209,341,
208,343,
205,347,
203,348,
204,346,
206,349,
206,354,
204,354,
204,356,
204,358,
208,362,
210,365,
206,368,
207,369,
208,369,
213,369,
207,373,
210,373,
206,376,
215,376,
216,376,
214,379,
214,378,
215,382,
219,380,
220,383,
219,382,
222,384,
221,384,
220,381,
224,382,
222,383,
221,384,
219,384,
219,385,
222,384,
222,387,
223,391,
218,394,
224,401,
225,409,
224,421,
227,433,
227,449,
231,466,
239,489,
245,516,
252,546,
262,579,
273,611,
287,645,
304,681,
322,720,
334,755,
360,793,
380,824,
405,858,
432,894,
458,927,
483,949,
510,976,
537,991,
561,991,
582,992,
601,991,
624,992,
641,992,
646,991,
646,992,
646,992,
646,992,
645,992,
646,991,
645,993,
646,992,
646,991,
646,968,
645,949,
645,929,
646,907,
646,887,
646,865,
646,846,
645,821,
645,799,
646,778,
646,754,
645,735,
636,710,
622,691,
605,671,
595,649,
576,635,
562,615,
546,596,
528,575,
514,557,
499,542,
481,525,
464,508,
448,489,
435,474,
422,461,
403,448,
387,432,
373,421,
362,410,
348,399,
337,389,
322,384,
306,374,
304,368,
293,362,
282,362,
271,361,
270,357,
259,356,
261,360,
255,366,
255,368,
249,375,
252,376,
250,384,
251,392,
249,400,
248,404,
255,412,
260,420,
261,430,
263,436,
264,442,
268,448,
272,454,
278,463,
277,469,
282,473,
294,478,
290,480,
299,486,
297,489,
300,488,
303,488,
307,490,
307,488,
308,491,
310,489,
312,487,
312,483,
316,484,
310,477,
312,476,
312,469,
313,464,
309,459,
307,454,
305,450,
298,441,
304,436,
300,433,
294,427,
293,422,
287,412,
286,408,
281,406,
281,400,
276,393,
275,386,
273,380,
267,375,
263,370,
260,368,
256,363,
254,357,
251,354,
245,351,
240,346,
238,342,
237,338,
235,336,
230,335,
227,333,
224,333,
222,326,
222,327,
220,328,
217,326,
215,326,
217,324,
215,323,
213,325,
206,324,
204,323,
208,325,
208,327,
204,327,
201,329,
197,327,
200,328,
199,331,
198,334,
197,335,
198,337,
199,338,
202,341,
200,341,
197,345,
199,345,
201,349,
201,349,
202,355,
200,355,
201,354,
199,357,
200,360,
206,364,
202,362,
205,368,
205,367,
207,369,
206,374,
208,375,
208,375,
210,376,
210,379,
214,381,
211,381,
207,382,
211,383,
217,386,
212,388,
216,389,
215,387,
215,388,
221,386,
218,388,
219,390,
214,389,
213,386,
220,389,
215,389,
218,392,
217,394,
217,395,
217,399,
219,406,
220,414,
219,422,
226,435,
224,448,
230,472,
234,497,
239,523,
248,555,
259,585,
272,622,
281,656,
295,696,
311,730,
335,769,
358,805,
381,845,
405,881,
428,911,
454,941,
476,971,
507,992,
533,992,
557,991,
581,992,
606,992,
627,991,
643,991,
647,992,
647,992,
647,992,
646,991,
645,992,
645,992,
646,992,
646,992,
645,992,
646,991,
646,992,
646,992,
645,968,
646,947,
645,929,
645,906,
646,884,
646,859,
645,842,
645,820,
646,797,
646,772,
646,751,
646,733,
646,715,
645,695,
629,673,
617,658,
599,640,
582,622,
560,606,
550,584,
531,569,
512,554,
497,538,
479,519,
459,503,
446,486,
434,475,
420,462,
401,449,
385,437,
373,422,
361,414,
345,407,
336,400,
322,391,
313,385,
305,381,
294,378,
288,375,
279,376,
271,373,
268,376,
262,378,
261,382,
253,384,
256,389,
257,396,
254,401,
250,407,
250,413,
252,420,
256,428,
258,435,
257,442,
262,450,
269,454,
273,461,
278,467,
278,470,
279,476,
289,480,
295,484,
292,488,
298,488,
300,491,
304,489,
304,490,
311,491,
311,490,
310,487,
314,483,
316,480,
316,479,
319,474,
314,472,
313,465,
313,460,
309,457,
310,451,
306,445,
304,439,
303,433,
301,429,
297,424,
294,419,
290,408,
289,403,
287,399,
282,396,
277,390,
276,383,
270,375,
270,374,
264,369,
259,364,
257,360,
257,356,
253,354,
248,348,
245,346,
238,340,
238,339,
232,336,
232,336,
229,334,
227,331,
226,326,
220,329,
222,328,
220,328,
214,327,
214,325,
212,324,
210,328,
205,326,
203,325,
202,325,
198,325,
193,329,
194,327,
190,329,
195,330,
195,334,
193,332,
188,333,
190,337,
192,336,
193,339,
193,342,
196,343,
190,344,
194,344,
196,348,
193,350,
193,352,
194,354,
190,355,
194,357,
198,360,
197,365,
197,364,
200,364,
201,365,
199,369,
200,373,
201,374,
201,374,
203,375,
206,378,
206,382,
204,380,
207,381,
207,381,
210,383,
209,386,
208,385,
209,384,
208,384,
214,390,
213,390,
212,392,
210,392,
215,390,
214,390,
214,391,
216,391,
217,388,
218,388,
222,391,
221,391,
216,389,
217,386,
220,388,
219,388,
218,391,
218,391,
216,394,
222,395,
219,401,
221,410,
218,417,
221,429,
227,444,
230,462,
231,485,
234,509,
242,538,
253,566,
267,603,
277,639,
290,675,
306,716,
328,753,
352,794,
372,829,
394,865,
418,898,
442,926,
469,957,
496,980,
518,993,
539,992,
562,992,
596,991,
613,992,
631,992,
645,992,
646,991,
645,991,
646,992,
645,991,
646,991,
645,992,
645,992,
646,991,
646,991,
645,965,
646,944,
646,920,
645,900,
646,879,
645,855,
645,833,
645,805,
646,787,
645,766,
644,746,
646,720,
646,700,
635,679,
623,664,
606,643,
589,623,
573,604,
559,587,
541,571,
524,557,
506,540,
491,522,
476,509,
459,495,
443,481,
425,464,
411,453,
402,440,
386,431,
370,419,
358,410,
342,400,
336,394,
322,388,
308,382,
299,378,
287,374,
289,374,
277,373,
269,372,
261,373,
259,376,
257,377,
252,379,
252,387,
247,393,
246,396,
249,402,
251,411,
250,420,
251,424,
252,431,
255,436,
262,444,
262,451,
267,459,
269,465,
273,469,
277,473,
277,479,
285,485,
286,489,
290,489,
294,493,
296,496,
293,497,
300,497,
299,493,
306,493,
302,496,
304,495,
304,491,
305,488,
307,485,
309,480,
305,479,
303,473,
304,468,
307,464,
306,460,
302,453,
296,447,
299,439,
300,435,
295,430,
292,423,
288,417,
289,412,
287,402,
284,400,
282,394,
275,386,
276,382,
267,376,
270,373,
262,370,
260,367,
256,361,
253,358,
253,358,
246,352,
244,352,
243,348,
241,346,
237,343,
235,344,
232,343,
230,340,
229,339,
228,340,
225,339,
222,339,
221,338,
219,337,
218,339,
218,340,
215,339,
217,340,
216,339,
218,339,
215,343,
213,346,
213,344,
213,344,
214,347,
215,349,
210,351,
209,351,
209,352,
211,355,
207,360,
207,359,
210,362,
209,359,
213,365,
211,367,
211,370,
209,371,
214,373,
215,375,
213,376,
211,379,
212,379,
216,383,
214,384,
216,386,
217,391,
214,391,
216,390,
219,392,
217,394,
218,394,
217,394,
220,396,
221,398,
223,398,
218,397,
220,398,
219,399,
224,397,
224,400,
220,399,
222,399,
223,397,
229,398,
224,398,
224,396,
222,398,
223,396,
224,398,
223,398,
221,400,
221,398,
225,401,
226,404,
224,410,
225,415,
221,423,
227,433,
233,443,
234,459,
234,481,
236,505,
243,528,
252,558,
257,588,
273,620,
282,654,
299,690,
315,724,
336,761,
353,797,
372,829,
396,862,
418,888,
444,917,
468,943,
488,962,
511,980,
536,991,
554,992,
573,992,
590,992,
607,992,
625,992,
636,991,
645,992,
646,991,
646,974,
646,957,
646,941,
646,926,
644,904,
645,883,
646,862,
646,839,
645,817,
645,793,
645,771,
639,744,
632,720,
617,697,
604,674,
590,653,
577,630,
567,610,
551,592,
530,569,
511,553,
502,535,
490,518,
475,504,
459,488,
439,474,
429,458,
416,445,
402,432,
386,421,
373,410,
361,397,
348,388,
336,380,
321,373,
312,367,
299,361,
293,355,
285,353,
273,351,
267,353,
256,350,
253,350,
248,353,
243,357,
235,363,
234,367,
233,371,
232,380,
233,386,
233,394,
232,401,
233,408,
239,415,
238,425,
243,434,
246,444,
254,449,
254,455,
259,465,
262,471,
266,476,
270,480,
272,486,
278,492,
283,497,
285,495,
288,499,
295,500,
295,503,
299,504,
300,502,
302,500,
304,496,
308,496,
302,494,
305,490,
310,488,
311,483,
310,482,
306,476,
304,470,
307,466,
306,462,
303,457,
299,449,
299,446,
296,439,
296,435,
289,431,
289,425,
286,421,
278,413,
283,409,
275,405,
275,400,
272,396,
265,390,
268,386,
266,385,
260,380,
258,379,
254,372,
259,370,
254,369,
250,367,
246,363,
240,362,
242,357,
241,357,
240,356,
234,355,
235,356,
230,351,
230,352,
228,351,
225,353,
218,353,
223,349,
222,352,
221,352,
213,353,
213,352,
215,352,
214,351,
212,353,
209,356,
208,357,
208,355,
206,358,
208,358,
207,361,
204,359,
210,362,
208,363,
207,364,
206,368,
204,369,
207,370,
209,373,
211,375,
208,377,
208,378,
211,379,
214,381,
209,385,
209,384,
211,387,
214,387,
216,389,
217,393,
214,393,
214,394,
216,396,
218,397,
218,402,
218,402,
217,400,
221,402,
223,403,
221,406,
222,407,
221,408,
224,409,
227,408,
224,412,
224,413,
226,412,
221,413,
228,412,
227,413,
225,414,
227,414,
225,414,
230,413,
230,416,
228,415,
224,416,
228,415,
225,411,
230,416,
228,416,
229,417,
227,413,
231,418,
228,420,
228,425,
227,429,
226,434,
230,441,
234,452,
235,466,
236,481,
237,499,
248,520,
253,546,
256,573,
265,606,
275,640,
288,676,
307,712,
325,748,
341,784,
360,819,
381,850,
407,884,
429,914,
454,941,
477,967,
502,986,
529,991,
551,992,
570,991,
592,991,
613,991,
633,991,
643,992,
646,992,
646,992,
645,992,
646,992,
646,992,
646,975,
646,956,
645,936,
646,918,
645,898,
646,875,
644,852,
645,828,
645,803,
645,783,
645,759,
646,737,
646,712,
645,690,
644,670,
628,651,
613,629,
601,612,
582,590,
569,576,
551,561,
537,546,
516,533,
501,514,
490,506,
471,492,
456,483,
435,471,
429,459,
409,450,
398,440,
384,432,
370,422,
357,413,
342,408,
336,401,
322,394,
309,393,
309,389,
294,385,
288,386,
279,384,
271,384,
267,385,
266,385,
260,389,
255,393,
252,397,
252,400,
249,405,
250,411,
247,418,
248,425,
252,429,
253,435,
257,443,
258,448,
260,458,
261,463,
268,469,
271,474,
270,482,
275,487,
276,490,
285,494,
286,499,
292,500,
290,503,
298,504,
301,504,
303,508,
303,506,
306,504,
306,503,
311,500,
309,499,
317,496,
310,491,
315,486,
315,485,
316,481,
316,476,
313,470,
312,466,
311,459,
313,456,
310,450,
308,447,
305,441,
305,432,
303,431,
299,426,
298,422,
291,415,
292,410,
289,405,
285,401,
281,397,
278,393,
277,386,
275,385,
267,378,
262,376,
258,372,
257,370,
255,367,
251,365,
247,364,
243,362,
240,359,
243,357,
238,359,
235,356,
232,354,
231,353,
232,354,
231,354,
223,353,
223,354,
223,353,
226,357,
224,352,
223,357,
218,357,
217,354,
222,356,
221,355,
218,360,
217,361,
216,361,
217,361,
216,364,
216,366,
212,369,
213,368,
214,370,
211,372,
210,373,
203,376,
207,377,
206,376,
206,379,
206,382,
206,386,
207,385,
208,384,
209,388,
211,390,
208,391,
211,392,
211,388,
214,392,
210,396,
215,397,
213,398,
220,400,
212,399,
213,401,
214,407,
215,404,
215,406,
219,408,
216,410,
217,412,
216,411,
219,412,
219,415,
218,416,
216,417,
215,418,
217,418,
217,417,
220,419,
216,419,
219,420,
220,416,
223,418,
221,420,
222,420,
221,420,
224,419,
226,421,
226,422,
225,418,
225,421,
226,419,
231,420,
227,419,
227,421,
228,418,
227,418,
231,418,
233,422,
229,420,
230,419,
229,419,
231,420,
233,424,
231,425,
231,431,
231,434,
234,440,
233,450,
234,462,
232,474,
241,491,
248,510,
252,537,
257,561,
264,591,
271,624,
285,656,
303,693,
318,731,
336,765,
351,802,
377,830,
399,866,
418,898,
447,923,
469,946,
493,968,
518,984,
539,992,
563,991,
580,992,
604,991,
623,992,
639,991,
646,992,
646,992,
646,991,
646,971,
646,956,
645,939,
646,919,
646,898,
645,878,
645,855,
646,833,
645,810,
645,784,
645,761,
645,738,
646,712,
645,690,
645,667,
644,644,
626,624,
613,605,
598,586,
582,566,
569,551,
554,536,
533,520,
517,506,
499,489,
484,477,
470,466,
454,456,
437,446,
423,436,
405,426,
393,416,
376,409,
364,402,
350,394,
343,387,
325,382,
316,380,
304,380,
296,377,
287,372,
280,374,
271,374,
265,375,
258,377,
255,376,
253,381,
248,389,
246,396,
242,399,
245,404,
244,412,
244,420,
242,425,
244,431,
246,439,
249,443,
252,454,
253,460,
257,466,
261,472,
266,480,
270,485,
272,493,
275,498,
280,501,
282,504,
288,504,
290,508,
293,511,
301,511,
306,513,
300,513,
306,511,
307,510,
311,506,
314,506,
317,506,
313,499,
315,498,
317,495,
318,491,
320,485,
317,482,
316,480,
316,474,
317,470,
313,463,
312,459,
309,452,
308,446,
308,440,
306,437,
302,433,
299,428,
292,423,
294,418,
291,413,
289,411,
284,408,
280,403,
281,398,
277,395,
276,393,
267,389,
264,387,
259,382,
256,382,
253,379,
249,378,
247,378,
245,371,
243,373,
240,371,
239,371,
235,368,
237,368,
235,367,
233,368,
229,366,
221,365,
225,365,
225,365,
224,369,
221,368,
222,367,
222,369,
222,370,
223,371,
220,372,
219,373,
218,372,
219,373,
218,375,
214,377,
216,379,
215,377,
219,381,
218,384,
211,382,
213,385,
214,386,
215,386,
215,391,
214,391,
214,392,
210,395,
217,396,
216,398,
215,401,
209,402,
213,405,
215,406,
217,406,
216,410,
216,413,
215,412,
217,413,
218,414,
220,418,
217,420,
215,419,
217,420,
219,423,
220,425,
217,426,
221,425,
227,424,
226,428,
226,429,
224,427,
228,430,
225,426,
227,428,
227,431,
226,434,
227,432,
231,431,
232,431,
231,432,
233,433,
231,431,
235,431,
233,431,
233,434,
229,432,
225,432,
227,430,
231,434,
230,436,
228,437,
228,435,
226,438,
230,440,
230,445,
231,453,
230,459,
233,467,
239,480,
244,498,
245,512,
251,534,
256,557,
268,583,
276,612,
283,639,
297,673,
314,704,
332,738,
347,768,
366,800,
384,827,
405,854,
428,879,
450,904,
470,922,
492,938,
512,950,
535,957,
551,965,
572,969,
584,969,
604,964,
620,954,
631,948,
640,936,
644,924,
645,905,
645,885,
645,866,
646,844,
646,821,
646,799,
645,773,
645,750,
639,725,
633,702,
621,675,
611,651,
600,632,
584,608,
572,588,
556,565,
544,547,
524,528,
514,512,
498,496,
480,479,
470,465,
460,453,
443,443,
426,429,
412,419,
402,408,
386,400,
375,391,
360,383,
346,375,
336,368,
328,364,
316,360,
302,357,
291,354,
285,352,
278,353,
270,353,
262,356,
255,358,
252,361,
250,366,
248,371,
244,376,
240,382,
239,386,
242,397,
240,406,
241,414,
242,422,
238,431,
245,435,
251,443,
251,453,
254,459,
257,470,
263,476,
266,483,
269,490,
274,495,
271,499,
281,503,
286,510,
286,513,
289,516,
291,517,
300,516,
300,519,
305,519,
304,518,
306,519,
306,514,
312,516,
316,512,
311,509,
309,507,
314,502,
310,498,
313,496,
308,493,
305,486,
309,480,
310,475,
309,472,
306,466,
303,461,
301,454,
300,451,
300,448,
294,441,
293,439,
293,433,
292,429,
285,425,
285,421,
284,417,
282,410,
277,408,
278,406,
274,402,
269,400,
266,398,
264,395,
258,393,
254,390,
251,391,
251,388,
251,384,
242,385,
244,384,
240,382,
238,381,
242,380,
241,378,
237,380,
236,380,
233,379,
239,380,
236,380,
234,381,
233,380,
231,382,
232,380,
228,383,
229,384,
228,387,
228,386,
228,388,
226,389,
224,390,
221,391,
223,393,
220,391,
222,397,
217,398,
214,399,
216,399,
218,399,
216,404,
219,407,
215,407,
211,409,
216,409,
214,410,
217,414,
217,413,
215,412,
217,414,
221,418,
221,419,
220,421,
219,421,
223,422,
222,424,
223,427,
221,428,
221,427,
224,430,
228,431,
225,432,
223,434,
224,434,
225,434,
227,435,
226,438,
221,436,
219,438,
225,437,
226,441,
227,441,
224,440,
223,443,
225,441,
223,443,
226,442,
224,443,
224,443,
226,440,
228,440,
230,442,
228,441,
224,441,
230,441,
232,441,
233,442,
230,445,
228,446,
229,448,
232,448,
233,456,
230,461,
228,469,
235,477,
237,488,
244,503,
246,523,
247,536,
257,558,
264,581,
277,609,
288,639,
297,669,
312,700,
332,731,
350,762,
367,796,
385,824,
407,852,
428,877,
455,899,
474,921,
502,939,
523,950,
545,963,
568,969,
582,976,
604,976,
622,972,
640,966,
645,957,
644,951,
645,938,
646,922,
646,904,
645,885,
646,866,
645,848,
646,825,
646,801,
644,777,
645,755,
645,730,
645,711,
645,687,
644,663,
644,643,
645,624,
640,605,
626,583,
614,565,
597,548,
584,534,
563,520,
547,504,
533,492,
517,478,
498,467,
483,457,
467,448,
452,438,
438,430,
425,424,
408,416,
396,409,
382,402,
371,398,
358,394,
342,391,
328,387,
319,382,
311,381,
301,383,
291,384,
282,385,
276,383,
271,389,
261,392,
257,397,
251,400,
250,405,
250,410,
247,418,
241,426,
241,430,
243,435,
244,443,
246,451,
249,456,
248,463,
252,469,
255,476,
259,482,
261,490,
265,494,
268,498,
277,504,
278,509,
279,513,
284,516,
291,518,
295,522,
299,524,
298,523,
302,523,
309,523,
312,519,
316,522,
318,520,
314,519,
322,516,
323,513,
325,510,
323,508,
323,505,
322,498,
326,495,
328,489,
324,486,
322,483,
321,475,
322,474,
320,466,
319,465,
314,458,
313,453,
311,447,
312,444,
304,438,
300,434,
299,430,
297,423,
293,422,
289,419,
283,416,
282,413,
276,406,
277,405,
268,403,
266,403,
261,396,
264,395,
256,394,
256,392,
253,393,
248,389,
247,387,
246,385,
241,388,
240,387,
238,384,
237,384,
231,384,
236,384,
228,384,
226,384,
226,383,
227,385,
226,385,
222,386,
220,386,
220,386,
225,389,
223,389,
219,390,
220,391,
220,391,
223,394,
222,398,
218,394,
221,400,
221,401,
222,403,
223,402,
224,405,
219,406,
222,406,
229,409,
227,413,
225,416,
225,417,
225,416,
227,416,
229,419,
227,422,
227,423,
229,423,
229,424,
230,428,
230,428,
224,430,
227,429,
229,430,
223,433,
228,434,
226,433,
230,437,
227,434,
229,436,
228,441,
230,441,
225,441,
231,439,
231,440,
234,442,
230,443,
225,440,
230,444,
231,445,
230,447,
226,445,
226,447,
228,444,
230,444,
225,448,
229,447,
222,446,
225,445,
224,445,
225,445,
226,446,
224,447,
226,450,
230,451,
228,454,
229,459,
229,467,
236,473,
238,486,
241,498,
240,510,
248,527,
254,548,
264,572,
271,596,
281,622,
291,653,
304,681,
323,713,
341,745,
357,776,
377,803,
398,830,
422,855,
446,881,
467,903,
491,922,
516,936,
536,948,
561,955,
579,963,
595,963,
616,965,
632,960,
644,955,
645,946,
646,934,
646,920,
645,901,
645,887,
645,871,
646,849,
646,828,
645,803,
645,783,
645,760,
646,739,
646,717,
645,691,
645,669,
645,650,
640,629,
628,608,
617,587,
597,570,
586,553,
569,535,
551,519,
539,504,
525,492,
506,482,
489,470,
470,457,
460,449,
449,440,
433,431,
420,423,
403,416,
390,408,
377,400,
366,399,
352,393,
341,390,
332,386,
324,386,
312,382,
302,381,
290,383,
289,383,
285,386,
276,387,
270,393,
264,395,
259,401,
259,404,
255,415,
257,419,
249,425,
252,432,
254,438,
253,446,
257,457,
254,462,
258,469,
260,472,
261,481,
260,487,
266,493,
265,497,
274,500,
281,507,
283,513,
281,514,
293,519,
294,520,
301,524,
299,526,
308,527,
311,525,
313,524,
315,525,
320,526,
316,523,
319,523,
322,519,
327,518,
321,513,
324,513,
322,505,
321,499,
324,496,
322,495,
321,489,
319,486,
319,481,
316,473,
318,471,
312,466,
310,459,
310,453,
309,450,
305,445,
298,441,
297,437,
295,431,
294,428,
290,425,
284,420,
282,420,
281,415,
281,412,
275,408,
277,407,
270,405,
268,403,
272,403,
268,403,
265,401,
263,398,
261,397,
259,395,
259,395,
253,394,
253,394,
247,393,
255,390,
250,391,
247,392,
244,393,
242,392,
242,392,
239,393,
238,395,
234,394,
235,396,
231,395,
232,396,
229,399,
228,397,
230,396,
227,397,
228,401,
227,404,
225,407,
226,404,
226,406,
226,409,
224,408,
221,413,
222,411,
225,414,
226,415,
222,418,
220,421,
223,419,
229,423,
227,425,
227,426,
224,428,
224,429,
228,429,
231,430,
230,432,
226,435,
225,435,
231,436,
234,436,
231,438,
231,438,
230,439,
232,440,
234,440,
235,441,
231,440,
229,444,
226,444,
231,443,
230,444,
231,445,
228,447,
231,445,
233,445,
234,446,
232,447,
227,449,
235,450,
234,447,
237,452,
236,453,
236,454,
238,457,
237,461,
238,467,
240,474,
236,484,
238,491,
249,507,
251,524,
257,543,
262,561,
270,586,
282,609,
292,640,
300,668,
316,697,
330,726,
348,752,
366,783,
384,809,
407,835,
427,857,
450,879,
471,896,
493,912,
516,924,
533,932,
558,936,
579,941,
596,942,
611,939,
620,932,
637,923,
644,912,
645,896,
646,884,
646,865,
645,844,
645,826,
645,805,
645,780,
645,758,
644,733,
646,711,
645,688,
643,665,
627,645,
621,623,
609,601,
593,582,
580,562,
565,543,
551,524,
537,510,
518,497,
504,481,
488,466,
474,455,
460,441,
444,432,
428,425,
410,413,
398,405,
385,396,
372,391,
357,385,
343,379,
328,373,
324,370,
310,367,
302,367,
288,363,
282,364,
274,363,
267,365,
266,368,
255,370,
253,373,
246,376,
246,387,
243,394,
241,400,
237,405,
241,413,
239,422,
242,430,
244,440,
244,445,
247,455,
249,463,
254,472,
257,479,
256,484,
265,492,
271,499,
273,506,
274,510,
278,513,
284,519,
289,521,
291,525,
296,530,
300,531,
301,532,
308,533,
311,533,
312,533,
315,530,
317,531,
319,525,
321,525,
321,518,
321,517,
323,512,
324,508,
323,507,
327,502,
317,496,
321,491,
327,486,
320,481,
319,477,
319,474,
316,469,
314,463,
312,459,
312,454,
306,451,
304,447,
302,441,
299,439,
294,435,
289,430,
287,427,
284,422,
282,421,
279,418,
277,416,
273,412,
268,407,
269,407,
264,405,
259,405,
261,402,
261,397,
257,400,
254,401,
252,398,
249,395,
248,396,
248,396,
244,398,
245,397,
241,398,
242,396,
237,397,
238,400,
235,400,
235,401,
236,400,
236,401,
234,403,
230,404,
230,402,
233,404,
232,404,
229,407,
229,406,
227,409,
231,409,
230,413,
229,413,
226,413,
229,416,
231,416,
230,418,
228,421,
228,423,
227,424,
225,424,
229,426,
228,429,
227,430,
227,430,
226,432,
228,433,
228,436,
231,437,
226,438,
230,439,
229,438,
230,441,
230,441,
231,442,
224,443,
230,441,
231,443,
230,446,
227,443,
228,443,
230,444,
229,445,
230,444,
231,445,
227,445,
227,445,
231,449,
231,454,
233,458,
231,460,
239,468,
241,477,
242,488,
245,500,
247,515,
254,531,
264,549,
270,573,
281,602,
287,629,
303,658,
316,690,
331,722,
348,754,
367,782,
392,813,
411,843,
434,869,
454,892,
481,912,
503,928,
527,945,
554,960,
571,970,
592,977,
614,978,
632,979,
645,976,
646,967,
646,960,
645,946,
646,934,
646,918,
644,904,
646,884,
646,863,
645,842,
645,824,
645,801,
645,776,
646,753,
644,731,
644,709,
646,687,
646,666,
646,645,
645,626,
645,607,
646,589,
628,574,
615,552,
602,537,
585,525,
566,514,
548,501,
533,490,
514,475,
497,467,
484,458,
469,451,
449,443,
436,433,
421,428,
407,422,
391,416,
380,410,
363,404,
355,403,
338,400,
332,399,
319,398,
311,395,
304,399,
293,399,
289,402,
277,400,
278,406,
275,408,
268,413,
266,419,
263,424,
260,428,
260,435,
261,440,
253,447,
251,455,
261,460,
261,468,
264,475,
261,479,
264,488,
269,492,
278,499,
281,509,
282,511,
285,513,
288,517,
297,523,
298,523,
302,529,
305,529,
308,529,
316,532,
319,533,
319,532,
318,534,
325,530,
328,527,
330,526,
328,523,
331,522,
327,514,
331,510,
332,507,
334,506,
327,502,
329,497,
327,490,
330,489,
326,485,
328,480,
321,477,
319,465,
322,464,
315,460,
312,458,
311,451,
312,447,
309,443,
306,440,
305,438,
299,431,
295,428,
292,426,
293,424,
289,419,
285,415,
282,413,
282,412,
276,409,
269,408,
268,405,
263,402,
263,400,
259,401,
252,399,
253,396,
251,392,
246,393,
245,394,
242,392,
240,391,
237,391,
238,390,
238,390,
235,390,
233,391,
233,393,
234,393,
232,397,
231,396,
230,397,
229,395,
229,396,
228,399,
228,401,
223,400,
230,403,
232,403,
230,406,
227,406,
227,409,
226,408,
234,409,
232,413,
228,414,
225,416,
230,416,
230,416,
230,421,
229,421,
225,423,
228,424,
227,423,
230,427,
234,429,
233,431,
230,429,
233,431,
229,433,
229,436,
230,436,
228,435,
232,435,
234,436,
234,437,
232,437,
226,435,
232,434,
231,437,
232,438,
232,437,
231,437,
233,440,
236,439,
235,438,
234,441,
233,442,
238,443,
238,446,
237,451,
237,451,
234,459,
237,464,
242,477,
244,490,
245,500,
253,521,
257,541,
267,562,
277,590,
285,618,
295,650,
309,679,
327,711,
347,747,
368,778,
384,808,
402,837,
431,867,
454,892,
476,914,
502,936,
527,949,
549,964,
573,977,
597,986,
613,990,
627,990,
645,986,
646,980,
646,974,
645,964,
645,950,
645,935,
646,920,
644,902,
645,882,
645,866,
645,839,
646,820,
645,798,
646,777,
645,750,
645,731,
645,708,
645,685,
644,665,
646,642,
645,622,
646,604,
644,586,
626,569,
611,554,
598,538,
579,525,
564,511,
543,498,
524,485,
507,474,
494,464,
473,453,
454,443,
436,434,
422,429,
410,420,
395,416,
377,410,
365,407,
355,401,
342,396,
332,399,
321,391,
313,393,
303,391,
293,392,
288,395,
280,398,
273,403,
266,403,
269,408,
264,418,
266,421,
259,428,
258,432,
263,439,
263,446,
261,453,
262,459,
262,466,
272,472,
266,479,
272,487,
269,495,
277,498,
279,502,
280,506,
287,515,
292,516,
294,521,
296,522,
304,527,
309,531,
312,532,
313,533,
317,532,
320,534,
318,533,
326,533,
324,525,
327,526,
328,522,
331,522,
332,518,
329,514,
332,509,
329,505,
328,500,
328,495,
326,492,
330,486,
327,481,
327,477,
321,472,
319,465,
321,460,
314,454,
314,452,
308,446,
305,443,
305,437,
305,436,
297,432,
295,424,
294,423,
292,418,
291,415,
289,414,
285,411,
281,406,
276,403,
277,400,
277,399,
271,400,
266,398,
267,392,
265,392,
264,392,
257,394,
256,390,
255,393,
251,389,
247,391,
247,394,
245,393,
240,391,
241,390,
241,391,
237,392,
233,390,
234,393,
236,391,
233,396,
231,394,
230,395,
232,395,
228,395,
234,400,
230,400,
229,402,
223,401,
230,404,
224,404,
231,408,
230,409,
231,410,
226,410,
231,413,
230,415,
227,416,
228,419,
233,418,
231,417,
231,423,
230,424,
233,425,
237,424,
237,426,
239,427,
235,429,
234,429,
239,430,
242,430,
240,433,
239,432,
240,434,
239,433,
243,435,
244,436,
243,435,
242,435,
240,434,
243,437,
243,437,
242,438,
239,438,
242,438,
244,439,
246,446,
242,450,
243,455,
244,461,
247,470,
250,484,
249,499,
254,515,
260,535,
268,556,
276,583,
283,613,
295,643,
307,671,
324,704,
342,739,
359,771,
374,801,
402,832,
419,855,
448,881,
473,908,
497,926,
521,944,
547,959,
568,971,
586,979,
604,984,
622,982,
643,979,
646,976,
645,970,
645,956,
645,943,
645,927,
645,914,
645,895,
646,876,
646,855,
646,834,
645,807,
645,789,
646,765,
645,741,
645,718,
644,694,
645,674,
646,651,
646,631,
640,611,
628,590,
609,573,
589,554,
574,540,
559,524,
549,510,
530,495,
507,481,
491,469,
474,454,
459,442,
442,435,
429,426,
405,417,
396,408,
384,399,
368,396,
357,389,
339,385,
329,380,
321,377,
309,374,
298,377,
289,379,
283,376,
277,379,
271,381,
266,388,
260,393,
258,397,
252,403,
255,412,
253,419,
252,424,
253,434,
253,438,
254,450,
261,459,
262,468,
265,475,
269,482,
271,489,
279,496,
280,503,
283,510,
288,513,
295,521,
299,525,
300,529,
301,531,
311,534,
316,533,
319,537,
321,536,
320,534,
324,534,
329,532,
329,531,
334,527,
331,524,
334,519,
337,518,
337,512,
332,511,
331,506,
332,499,
329,496,
331,494,
328,487,
324,483,
323,477,
324,472,
319,470,
316,464,
314,459,
309,455,
310,451,
307,451,
305,444,
299,441,
292,434,
295,429,
293,429,
288,425,
286,423,
282,418,
283,414,
282,411,
276,410,
272,406,
272,404,
269,399,
269,400,
266,399,
260,397,
256,395,
258,391,
253,393,
258,394,
254,391,
249,394,
252,390,
251,390,
246,389,
245,388,
243,389,
242,389,
241,388,
240,390,
236,390,
231,388,
236,387,
237,389,
235,389,
236,390,
232,391,
232,392,
235,395,
232,394,
229,397,
227,399,
229,400,
230,403,
225,405,
227,404,
223,407,
229,407,
234,410,
231,412,
226,411,
230,415,
234,416,
236,416,
235,422,
237,420,
235,421,
236,421,
239,421,
240,423,
237,424,
233,425,
238,423,
239,424,
240,428,
237,428,
239,431,
237,428,
237,427,
240,429,
236,430,
240,432,
240,432,
244,430,
243,434,
239,437,
241,440,
239,442,
239,444,
246,453,
246,461,
248,471,
253,483,
252,496,
260,520,
264,542,
269,568,
277,595,
293,624,
302,658,
318,692,
328,727,
347,757,
369,791,
394,823,
419,856,
438,884,
466,910,
494,934,
517,956,
547,976,
570,990,
593,992,
617,992,
641,991,
646,992,
646,992,
646,992,
645,992,
646,992,
645,991,
646,975,
646,963,
645,945,
646,928,
645,911,
645,888,
645,869,
645,847,
646,825,
645,805,
645,781,
645,760,
646,736,
645,716,
646,695,
645,677,
646,658,
645,638,
645,620,
645,602,
645,590,
645,573,
629,560,
617,544,
598,533,
577,519,
558,508,
542,497,
523,485,
506,475,
488,466,
470,456,
452,447,
435,437,
424,434,
407,427,
389,422,
376,417,
364,414,
353,412,
339,408,
326,409,
314,407,
305,407,
297,411,
286,412,
281,416,
272,420,
272,421,
270,427,
268,433,
268,439,
264,446,
268,452,
265,456,
270,462,
269,471,
270,477,
275,481,
276,488,
283,496,
284,501,
290,506,
294,509,
305,515,
307,520,
308,522,
317,526,
319,526,
328,529,
325,532,
331,531,
336,531,
338,528,
343,528,
345,526,
345,524,
346,522,
348,516,
348,513,
346,508,
351,507,
345,499,
342,498,
348,490,
340,489,
338,486,
333,480,
331,475,
329,469,
329,462,
324,459,
320,453,
317,450,
317,442,
313,437,
309,435,
303,431,
300,427,
296,418,
293,419,
292,415,
285,415,
284,408,
285,403,
281,400,
272,396,
275,396,
270,392,
267,390,
265,387,
264,388,
261,385,
260,384,
257,381,
251,381,
251,380,
245,380,
243,379,
242,379,
242,380,
241,381,
234,379,
232,380,
232,377,
231,378,
231,378,
227,378,
226,380,
228,379,
227,381,
229,383,
226,380,
223,381,
226,382,
226,386,
223,385,
222,387,
217,385,
221,388,
225,390,
220,391,
227,394,
219,395,
226,397,
228,398,
228,401,
230,401,
232,405,
230,404,
231,404,
233,407,
232,411,
230,410,
230,411,
231,413,
233,413,
231,416,
233,415,
235,419,
231,417,
236,420,
232,421,
236,422,
235,423,
238,422,
235,424,
238,427,
236,432,
238,428,
239,429,
239,429,
239,429,
239,429,
238,430,
236,428,
235,429,
237,431,
237,430,
236,430,
238,429,
239,428,
239,430,
234,429,
235,429,
236,428,
234,429,
236,431,
234,432,
233,437,
235,442,
238,451,
238,461,
234,470,
241,487,
244,501,
254,524,
257,550,
266,577,
276,608,
288,639,
305,674,
322,708,
343,744,
361,781,
384,814,
411,846,
435,879,
464,910,
486,936,
516,961,
542,981,
569,992,
595,991,
618,993,
643,992,
645,992,
646,992,
646,992,
645,992,
646,991,
644,992,
646,992,
644,992,
646,977,
647,961,
646,940,
645,923,
646,905,
645,883,
646,859,
645,837,
645,814,
646,794,
644,772,
646,744,
645,724,
644,704,
646,686,
646,664,
644,643,
644,624,
645,608,
646,590,
644,575,
645,560,
627,546,
613,533,
593,521,
573,508,
554,496,
535,481,
519,471,
497,462,
476,452,
458,443,
440,438,
427,430,
409,424,
391,416,
375,416,
358,412,
346,407,
336,404,
323,404,
312,405,
305,402,
295,403,
288,406,
281,412,
276,417,
274,420,
270,423,
267,430,
266,436,
263,441,
262,447,
266,452,
267,459,
270,465,
270,473,
269,478,
280,484,
286,492,
288,497,
291,504,
295,506,
295,508,
301,513,
310,518,
312,521,
315,524,
320,518,
324,523,
325,522,
329,524,
329,520,
330,520,
333,517,
334,517,
332,514,
328,507,
332,504,
335,500,
333,498,
333,496,
331,492,
333,484,
335,481,
328,479,
326,472,
323,466,
326,462,
320,456,
321,449,
316,444,
313,440,
312,434,
308,431,
307,427,
303,420,
301,418,
299,412,
296,407,
292,404,
290,401,
279,397,
281,394,
278,391,
276,389,
269,385,
265,383,
262,382,
261,380,
254,378,
254,378,
250,373,
248,373,
247,372,
245,372,
241,371,
237,371,
237,370,
234,368,
234,369,
231,369,
223,371,
226,368,
224,368,
225,371,
224,372,
221,371,
222,373,
218,370,
223,376,
221,376,
220,381,
215,379,
220,380,
222,382,
223,383,
222,384,
218,384,
222,386,
222,389,
223,390,
222,393,
219,394,
225,393,
226,393,
223,399,
222,399,
220,402,
223,400,
221,401,
223,405,
227,407,
225,406,
227,405,
230,410,
228,411,
227,412,
227,415,
225,415,
229,414,
228,418,
227,417,
228,421,
229,420,
233,421,
223,424,
229,425,
231,423,
229,423,
232,424,
234,426,
232,426,
232,426,
236,423,
239,426,
238,427,
242,426,
240,426,
241,426,
242,426,
243,426,
242,426,
240,426,
240,421,
242,423,
243,423,
244,423,
240,422,
244,422,
241,420,
242,422,
244,424,
243,425,
241,427,
243,424,
238,429,
242,433,
242,438,
242,448,
244,456,
247,470,
252,485,
251,503,
256,523,
264,547,
272,574,
279,605,
291,638,
303,671,
321,707,
339,742,
358,776,
377,809,
399,840,
423,870,
450,897,
475,924,
498,947,
523,968,
549,984,
569,992,
598,992,
613,992,
631,992,
646,992,
645,991,
645,992,
646,992,
646,981,
646,963,
646,948,
645,931,
645,914,
646,893,
646,871,
645,848,
646,825,
646,804,
645,778,
645,755,
645,731,
644,709,
645,688,
646,666,
646,642,
645,620,
646,603,
633,586,
612,565,
596,550,
578,532,
564,521,
547,504,
526,488,
509,479,
491,462,
478,454,
461,444,
444,437,
428,426,
415,417,
401,410,
383,405,
372,397,
356,391,
348,387,
336,383,
327,385,
313,383,
305,383,
297,384,
291,386,
284,391,
278,395,
271,399,
267,403,
266,409,
262,417,
257,423,
257,432,
254,439,
259,447,
255,454,
258,462,
260,470,
264,477,
270,484,
267,491,
274,498,
278,505,
285,510,
292,515,
294,520,
297,525,
296,528,
308,531,
312,533,
318,536,
320,535,
323,535,
326,533,
334,531,
331,528,
333,527,
334,526,
335,521,
339,515,
337,512,
336,510,
333,502,
331,498,
333,491,
333,488,
332,483,
325,476,
326,473,
326,463,
326,460,
322,457,
320,451,
315,446,
316,437,
313,437,
309,434,
306,427,
300,422,
300,418,
292,413,
293,413,
287,408,
283,403,
282,400,
279,397,
273,396,
273,392,
268,389,
267,390,
262,385,
259,383,
259,384,
254,382,
253,380,
253,379,
248,379,
243,377,
242,375,
242,374,
240,377,
241,375,
233,376,
235,376,
232,377,
236,377,
231,378,
231,379,
228,379,
229,377,
234,378,
230,380,
228,381,
227,383,
225,384,
227,381,
227,383,
225,386,
223,387,
226,387,
229,388,
228,390,
227,391,
224,393,
223,394,
228,396,
229,399,
226,400,
221,401,
225,401,
224,403,
226,406,
224,409,
225,409,
222,410,
224,408,
228,413,
227,418,
229,418,
225,417,
227,420,
229,420,
229,423,
229,423,
226,423,
232,423,
230,424,
231,423,
228,425,
230,427,
231,424,
232,426,
233,428,
231,425,
234,427,
234,424,
237,423,
237,426,
237,425,
237,425,
239,424,
238,427,
241,424,
237,427,
235,431,
241,432,
243,437,
237,443,
241,446,
242,456,
246,466,
254,480,
252,496,
255,519,
264,542,
270,564,
282,593,
293,625,
302,657,
316,691,
331,723,
350,754,
368,789,
388,823,
412,850,
430,877,
460,903,
484,926,
509,949,
532,965,
556,980,
584,988,
605,992,
625,991,
640,992,
646,992,
645,991,
645,991,
646,979,
646,967,
646,953,
646,933,
646,919,
646,902,
645,886,
645,864,
646,841,
645,821,
646,800,
645,777,
646,755,
646,733,
645,711,
647,692,
646,672,
646,652,
646,634,
645,617,
646,600,
628,585,
611,570,
592,554,
580,542,
563,531,
541,519,
524,506,
510,495,
493,484,
477,474,
455,464,
442,458,
428,446,
414,439,
400,431,
386,426,
369,418,
359,409,
352,408,
339,405,
329,404,
313,402,
305,397,
300,396,
295,398,
285,401,
280,402,
275,403,
276,407,
270,412,
269,417,
268,422,
262,426,
267,432,
266,440,
267,447,
267,455,
266,460,
273,464,
279,474,
280,479,
278,484,
288,492,
289,493,
296,501,
300,507,
302,511,
305,513,
312,518,
318,519,
320,521,
322,522,
318,524,
325,522,
330,520,
331,522,
329,519,
332,517,
333,514,
337,513,
330,508,
333,506,
328,502,
331,496,
328,494,
329,489,
328,483,
320,478,
323,473,
324,467,
317,465,
316,458,
316,454,
312,447,
311,441,
311,440,
306,431,
302,428,
302,423,
299,420,
300,414,
292,413,
287,406,
286,405,
285,398,
281,397,
280,396,
275,395,
269,390,
273,389,
268,388,
262,385,
260,382,
257,381,
257,378,
254,378,
251,378,
246,379,
246,378,
246,374,
244,375,
244,377,
238,376,
237,377,
232,374,
234,377,
235,378,
232,377,
229,380,
232,375,
228,380,
229,380,
227,382,
221,383,
227,383,
227,384,
227,385,
224,385,
219,387,
221,387,
224,390,
223,391,
222,392,
219,393,
222,394,
222,395,
223,399,
220,400,
215,402,
220,400,
218,402,
223,404,
220,403,
220,406,
222,405,
225,410,
224,411,
218,410,
222,410,
225,414,
226,414,
228,420,
225,418,
225,418,
225,417,
232,419,
229,424,
232,426,
228,422,
229,424,
234,424,
234,429,
238,428,
236,429,
236,427,
240,426,
240,427,
241,427,
239,426,
242,426,
244,427,
246,427,
246,426,
241,428,
240,424,
242,424,
242,425,
242,424,
239,425,
239,424,
239,422,
243,425,
239,430,
240,431,
235,433,
243,437,
246,442,
242,451,
247,463,
245,473,
249,486,
255,504,
255,529,
267,555,
270,580,
279,609,
290,639,
307,674,
322,709,
336,742,
357,775,
378,808,
401,838,
422,867,
448,892,
471,918,
498,939,
523,960,
545,975,
570,989,
591,991,
617,991,
635,992,
645,992,
646,991,
646,992,
645,982,
646,973,
645,960,
645,946,
645,927,
645,910,
645,894,
646,873,
646,851,
646,830,
645,807,
646,786,
646,766,
645,744,
645,721,
646,702,
646,684,
645,664,
646,646,
646,626,
646,607,
646,593,
631,579,
607,564,
595,551,
577,537,
560,526,
546,516,
528,504,
508,493,
496,480,
478,473,
463,467,
443,460,
430,451,
416,443,
406,433,
389,429,
379,425,
359,421,
350,412,
342,408,
331,409,
323,406,
305,404,
303,403,
297,403,
289,406,
281,408,
275,409,
270,412,
268,416,
265,420,
259,428,
257,432,
257,436,
259,439,
259,450,
254,454,
258,462,
259,467,
265,473,
268,479,
273,485,
275,490,
279,494,
288,496,
290,501,
299,505,
304,511,
303,511,
313,514,
316,517,
319,520,
321,519,
321,519,
330,517,
330,517,
331,517,
331,515,
333,512,
333,507,
334,506,
331,502,
325,500,
330,496,
331,490,
330,487,
329,481,
326,476,
325,472,
322,462,
320,460,
316,457,
319,454,
307,447,
312,440,
310,436,
305,430,
301,427,
296,423,
296,416,
294,413,
291,410,
284,406,
280,404,
280,398,
278,397,
272,394,
267,392,
264,390,
262,387,
260,385,
252,382,
250,381,
248,379,
248,376,
247,378,
243,378,
237,376,
237,375,
237,372,
236,373,
236,375,
231,371,
225,373,
230,372,
229,372,
228,375,
227,377,
223,374,
221,373,
224,375,
218,378,
217,379,
217,379,
220,381,
215,380,
216,383,
218,385,
214,384,
212,387,
216,388,
218,390,
217,393,
219,395,
219,396,
226,396,
225,399,
226,402,
224,405,
227,404,
227,404,
230,407,
228,410,
229,411,
226,412,
229,410,
230,416,
230,416,
228,417,
231,417,
231,418,
235,417,
234,421,
232,420,
230,418,
233,418,
235,422,
235,423,
232,424,
232,424,
235,422,
236,423,
236,423,
238,425,
235,423,
233,422,
237,425,
235,425,
236,424,
237,426,
237,426,
239,430,
239,433,
235,436,
237,443,
239,449,
242,461,
242,474,
247,491,
250,510,
254,532,
265,556,
274,583,
280,613,
291,645,
304,676,
326,708,
340,743,
358,773,
375,805,
397,833,
423,862,
447,885,
469,910,
493,931,
517,949,
542,961,
563,974,
584,983,
603,986,
621,987,
639,981,
646,977,
645,972,
646,960,
645,947,
646,929,
644,916,
645,902,
646,881,
645,860,
646,838,
646,816,
645,793,
646,772,
645,748,
646,724,
645,701,
645,684,
645,664,
635,642,
625,623,
614,604,
600,587,
581,571,
566,555,
552,539,
540,525,
523,512,
502,501,
489,488,
472,474,
464,465,
447,457,
428,444,
412,437,
400,426,
391,420,
377,412,
363,404,
350,402,
340,397,
331,391,
321,390,
312,388,
299,387,
291,386,
287,387,
279,389,
273,392,
264,397,
264,400,
261,406,
261,412,
256,419,
252,427,
253,433,
257,441,
259,449,
259,457,
258,464,
264,473,
268,478,
273,487,
275,494,
275,499,
277,505,
285,509,
293,518,
296,522,
297,524,
303,529,
310,527,
310,533,
318,534,
321,537,
323,536,
327,533,
331,532,
333,531,
330,529,
332,522,
335,517,
341,514,
339,512,
339,509,
337,503,
340,499,
343,494,
339,491,
340,487,
333,480,
333,475,
333,469,
330,466,
325,459,
323,454,
322,448,
322,443,
318,440,
309,434,
307,432,
305,426,
304,424,
299,417,
294,415,
289,413,
288,407,
285,405,
279,402,
274,403,
270,400,
268,394,
262,395,
263,396,
257,394,
254,392,
253,388,
253,387,
251,388,
248,388,
245,386,
246,386,
244,386,
242,387,
237,387,
237,389,
234,388,
233,386,
229,388,
231,389,
226,390,
229,392,
227,387,
229,390,
224,392,
223,393,
224,392,
227,393,
229,395,
230,396,
225,396,
226,397,
226,397,
228,396,
230,400,
224,400,
224,400,
228,400,
229,402,
224,403,
228,402,
225,402,
228,406,
230,403,
230,405,
228,407,
227,408,
227,409,
227,410,
230,415,
225,418,
225,423,
229,429,
234,438,
235,452,
236,462,
240,484,
246,499,
256,526,
260,551,
268,578,
280,607,
290,636,
312,667,
327,698,
344,735,
362,766,
382,797,
409,824,
431,851,
454,881,
475,904,
500,923,
525,942,
549,958,
572,972,
589,980,
607,987,
627,987,
640,990,
645,987,
646,981,
646,971,
645,958,
645,950,
645,936,
646,918,
646,901,
645,880,
646,865,
645,843,
645,823,
645,803,
645,782,
644,759,
645,739,
645,718,
646,695,
630,675,
617,656,
609,638,
595,619,
577,598,
566,584,
550,568,
536,554,
519,539,
499,524,
489,510,
474,497,
459,485,
441,474,
427,462,
412,447,
397,439,
386,431,
370,421,
356,412,
348,406,
338,398,
327,392,
315,387,
305,384,
295,379,
288,378,
282,376,
276,380,
266,380,
262,380,
259,383,
256,387,
253,393,
250,396,
248,403,
251,410,
247,418,
249,426,
251,434,
253,439,
258,447,
262,456,
265,464,
269,471,
275,477,
280,480,
286,487,
290,494,
291,500,
297,502,
300,504,
303,511,
315,514,
314,516,
313,516,
321,516,
325,516,
326,514,
331,514,
329,511,
332,509,
336,508,
335,505,
335,501,
331,497,
329,493,
328,487,
325,484,
328,480,
324,473,
322,469,
320,462,
318,461,
311,455,
309,447,
303,443,
307,438,
303,432,
296,429,
291,424,
290,419,
287,413,
284,410,
280,405,
276,403,
276,400,
277,396,
272,394,
265,391,
259,386,
260,385,
262,380,
256,377,
258,377,
250,375,
250,371,
246,372,
242,372,
241,369,
235,368,
234,367,
235,366,
235,368,
229,366,
230,368,
228,366,
227,366,
227,368,
225,368,
222,366,
222,370,
219,369,
221,370,
220,373,
220,375,
224,375,
221,375,
216,378,
217,380,
219,383,
214,385,
220,385,
219,386,
218,389,
219,391,
215,392,
219,392,
223,395,
222,397,
219,399,
213,398,
223,401,
224,403,
222,403,
224,406,
222,407,
227,406,
226,406,
227,410,
227,408,
227,410,
229,407,
229,409,
231,411,
227,409,
230,410,
229,409,
231,409,
224,413,
232,410,
224,411,
225,412,
231,412,
231,416,
229,420,
228,428,
229,432,
234,443,
236,458,
238,474,
237,491,
246,513,
253,539,
261,569,
269,600,
278,634,
294,668,
309,702,
325,739,
349,778,
370,813,
388,847,
419,878,
446,912,
473,941,
494,966,
524,989,
549,992,
580,992,
605,992,
631,991,
643,991,
645,992,
646,992,
644,992,
645,992,
645,992,
645,992,
645,992,
646,992,
646,991,
646,992,
646,992,
645,973,
646,955,
646,934,
646,915,
646,896,
646,874,
646,854,
646,833,
645,812,
646,791,
646,771,
646,751,
645,732,
646,713,
646,692,
646,675,
645,658,
646,642,
646,629,
645,613,
645,597,
628,585,
611,570,
593,556,
571,539,
558,527,
536,515,
519,503,
501,492,
482,478,
467,467,
449,459,
430,449,
412,442,
399,432,
387,427,
370,423,
355,419,
347,415,
333,411,
324,410,
315,411,
305,412,
293,410,
289,415,
282,414,
280,420,
277,424,
271,430,
272,435,
269,438,
270,447,
270,454,
271,461,
272,465,
274,472,
274,480,
279,484,
282,489,
286,496,
287,497,
297,504,
300,508,
304,509,
304,513,
313,513,
318,517,
317,518,
324,517,
324,515,
325,514,
328,512,
326,510,
330,509,
327,504,
332,499,
329,497,
331,492,
325,488,
326,486,
327,480,
329,473,
321,471,
320,463,
311,458,
313,451,
316,447,
312,446,
306,438,
305,432,
300,423,
304,419,
298,416,
296,410,
290,406,
289,400,
287,394,
284,391,
281,387,
275,384,
273,378,
269,375,
269,372,
261,370,
257,369,
254,363,
255,361,
249,362,
245,359,
239,357,
236,357,
234,352,
235,353,
233,354,
232,353,
228,352,
226,351,
226,352,
223,352,
223,353,
220,352,
220,353,
218,354,
218,355,
218,356,
214,357,
216,357,
212,357,
213,360,
214,363,
212,363,
217,363,
213,366,
214,367,
214,369,
213,372,
213,370,
217,372,
215,376,
213,374,
213,376,
216,376,
218,378,
220,381,
213,380,
215,384,
217,384,
220,385,
220,385,
219,389,
219,390,
220,390,
223,391,
218,395,
224,395,
222,397,
221,396,
223,397,
224,399,
223,401,
222,402,
222,401,
222,400,
223,403,
221,403,
224,405,
220,406,
224,405,
221,406,
223,407,
221,408,
223,405,
224,406,
224,408,
225,408,
226,407,
226,406,
226,405,
227,409,
230,409,
233,412,
231,408,
236,412,
231,410,
233,412,
231,414,
230,414,
231,410,
234,411,
231,410,
234,411,
234,410,
236,410,
237,411,
236,411,
232,410,
233,409,
236,408,
233,408,
235,408,
231,407,
227,407,
232,405,
230,405,
227,408,
227,406,
229,409,
228,407,
229,411,
228,414,
227,417,
224,424,
230,433,
228,445,
234,458,
237,477,
236,495,
241,520,
249,546,
258,580,
270,614,
277,648,
289,684,
312,723,
331,763,
349,801,
366,836,
396,873,
420,905,
446,936,
472,966,
497,990,
524,992,
554,992,
579,992,
605,992,
623,991,
644,992,
645,992,
646,992,
645,991,
645,991,
646,992,
646,991,
645,992,
645,992,
644,992,
646,992,
646,980,
645,957,
645,939,
646,916,
646,896,
645,871,
646,848,
647,828,
645,806,
645,783,
645,761,
647,739,
646,720,
646,702,
645,681,
644,663,
646,645,
646,629,
646,613,
644,598,
626,581,
606,569,
589,555,
568,538,
552,528,
535,514,
520,504,
502,492,
481,481,
463,469,
444,459,
432,452,
414,444,
399,438,
385,434,
369,428,
360,423,
342,422,
336,419,
323,417,
310,418,
304,417,
297,418,
290,423,
289,429,
282,428,
280,432,
274,441,
275,445,
273,453,
275,458,
272,461,
279,471,
280,476,
281,481,
282,489,
286,489,
294,499,
297,505,
298,509,
301,513,
307,515,
310,518,
314,521,
315,525,
315,524,
319,524,
326,528,
328,527,
323,526,
325,522,
330,521,
334,520,
333,517,
330,515,
326,510,
330,506,
332,500,
331,495,
326,493,
322,488,
325,480,
326,475,
320,471,
315,464,
316,459,
312,450,
316,447,
310,440,
308,433,
307,429,
305,423,
303,418,
303,413,
298,410,
290,406,
285,399,
285,396,
284,390,
280,388,
276,387,
272,381,
272,377,
267,374,
263,374,
261,371,
260,371,
256,368,
253,365,
249,365,
242,364,
240,361,
237,361,
238,360,
239,361,
232,360,
233,359,
225,359,
228,359,
226,360,
225,363,
221,365,
222,360,
217,365,
223,364,
222,366,
216,369,
216,367,
217,368,
216,372,
214,372,
213,372,
218,372,
216,373,
214,376,
216,378,
215,379,
217,380,
221,382,
219,385,
215,386,
213,387,
220,387,
224,390,
223,393,
222,395,
223,396,
227,395,
227,397,
227,401,
225,399,
228,403,
227,403,
231,407,
234,408,
231,408,
232,409,
234,407,
238,410,
237,413,
237,411,
235,410,
240,409,
241,410,
240,412,
239,413,
238,413,
240,411,
239,412,
240,413,
239,414,
237,414,
236,411,
236,410,
237,412,
234,412,
232,409,
231,412,
230,409,
228,412,
230,412,
227,410,
227,411,
228,411,
225,417,
226,421,
231,427,
227,433,
232,443,
234,456,
238,472,
240,491,
242,511,
251,535,
258,563,
267,593,
275,626,
283,652,
304,688,
320,722,
339,758,
355,792,
375,822,
400,851,
422,879,
449,904,
469,925,
488,947,
519,960,
538,975,
560,986,
576,991,
597,992,
615,992,
632,991,
644,991,
645,977,
647,968,
646,953,
645,938,
645,926,
645,908,
645,889,
646,869,
645,846,
646,826,
646,805,
646,783,
646,760,
645,737,
645,714,
647,696,
629,675,
619,654,
605,634,
591,617,
576,602,
560,584,
540,566,
530,552,
514,534,
498,523,
480,508,
467,494,
450,482,
437,473,
421,462,
409,452,
396,439,
383,426,
372,421,
354,415,
346,406,
332,399,
323,392,
314,387,
302,385,
295,382,
286,378,
279,380,
275,381,
263,382,
261,387,
255,389,
259,392,
254,397,
246,404,
249,410,
246,418,
248,424,
251,432,
252,441,
253,447,
256,453,
259,461,
264,468,
270,475,
268,483,
273,490,
279,498,
281,502,
291,503,
291,510,
295,513,
299,515,
304,517,
303,520,
310,520,
311,521,
315,517,
319,517,
320,514,
320,514,
323,513,
320,510,
329,505,
325,503,
324,497,
322,494,
319,487,
321,480,
318,477,
319,472,
315,464,
316,462,
312,454,
311,451,
308,445,
306,438,
306,435,
301,428,
303,425,
300,420,
297,417,
291,412,
293,406,
291,401,
288,400,
282,396,
277,392,
275,386,
274,385,
263,382,
263,380,
258,376,
260,373,
254,371,
250,369,
247,370,
244,367,
244,366,
245,364,
243,362,
236,365,
235,362,
233,360,
235,361,
229,360,
224,361,
226,360,
225,359,
225,359,
221,362,
221,359,
219,362,
220,361,
221,363,
219,363,
222,366,
218,367,
217,367,
219,367,
218,370,
217,372,
215,373,
215,373,
215,378,
215,377,
212,380,
214,381,
211,381,
214,383,
213,386,
213,389,
213,389,
213,391,
215,391,
216,394,
217,397,
215,396,
218,397,
218,398,
221,401,
221,402,
224,403,
223,406,
225,404,
222,410,
226,409,
225,410,
224,409,
228,410,
228,409,
230,410,
225,410,
230,410,
231,409,
233,411,
228,411,
229,410,
228,410,
232,409,
227,410,
229,412,
227,415,
225,413,
226,415,
226,418,
224,422,
227,430,
228,437,
227,450,
233,461,
237,479,
236,497,
242,519,
248,544,
257,570,
261,602,
276,634,
285,669,
297,704,
319,736,
333,769,
356,805,
376,837,
397,863,
422,892,
448,919,
476,942,
495,963,
520,980,
543,991,
568,992,
586,991,
606,991,
626,992,
643,992,
645,992,
646,992,
646,992,
646,986,
645,970,
646,956,
647,942,
645,924,
645,907,
646,885,
646,868,
646,850,
646,830,
646,805,
646,784,
645,765,
645,744,
645,725,
645,702,
645,688,
644,670,
635,652,
620,634,
607,618,
592,601,
581,587,
563,574,
550,563,
532,552,
519,539,
506,529,
491,519,
474,506,
459,496,
447,485,
438,478,
421,468,
409,457,
393,446,
389,440,
380,434,
364,429,
353,419,
343,418,
336,413,
328,410,
318,408,
311,407,
303,405,
297,406,
295,407,
284,407,
279,410,
275,415,
273,415,
274,421,
271,425,
271,434,
267,439,
268,443,
271,449,
273,457,
276,464,
272,471,
278,476,
280,481,
284,486,
286,492,
285,496,
290,502,
294,503,
301,507,
303,510,
305,512,
310,513,
310,512,
318,516,
317,517,
315,515,
314,513,
322,511,
325,509,
325,504,
323,502,
323,496,
322,491,
323,488,
317,483,
319,482,
316,473,
320,468,
317,466,
315,460,
310,454,
307,446,
307,441,
303,438,
301,432,
297,427,
295,422,
294,416,
292,413,
290,409,
284,402,
283,399,
282,393,
280,389,
278,385,
273,382,
269,377,
269,375,
263,372,
263,372,
260,370,
255,367,
252,366,
250,362,
248,362,
244,364,
238,362,
237,360,
233,358,
233,356,
228,361,
224,359,
223,356,
224,356,
221,358,
216,358,
214,361,
215,359,
218,359,
214,363,
213,362,
207,361,
210,366,
209,363,
215,366,
213,369,
210,371,
212,370,
214,371,
216,374,
215,377,
214,378,
215,377,
219,378,
216,381,
217,383,
217,384,
216,387,
219,385,
220,389,
220,389,
220,392,
219,392,
223,394,
221,394,
224,396,
223,399,
221,400,
223,399,
227,402,
227,404,
226,405,
227,408,
228,408,
232,408,
231,412,
227,410,
231,410,
232,411,
236,415,
237,413,
233,417,
234,417,
233,415,
236,416,
235,418,
235,418,
234,416,
234,413,
237,418,
236,417,
233,417,
233,416,
234,415,
236,415,
235,416,
235,417,
236,416,
234,413,
235,411,
235,412,
237,412,
231,412,
232,411,
231,410,
233,411,
232,411,
232,412,
228,412,
228,410,
233,419,
229,422,
230,429,
231,433,
234,445,
230,457,
237,475,
239,494,
241,516,
249,541,
253,567,
263,599,
273,633,
286,668,
301,700,
314,737,
337,773,
355,808,
377,838,
402,868,
426,897,
450,924,
473,948,
497,969,
522,983,
549,992,
572,992,
591,992,
611,991,
628,992,
644,991,
647,992,
645,992,
646,991,
644,983,
647,967,
645,952,
645,939,
646,918,
647,898,
646,879,
646,859,
645,841,
646,820,
646,797,
645,773,
645,754,
644,731,
646,710,
645,690,
645,672,
645,655,
645,638,
625,622,
606,603,
597,592,
579,578,
564,567,
549,553,
534,539,
516,526,
504,518,
487,507,
473,499,
456,487,
445,474,
433,470,
416,464,
406,455,
393,448,
387,441,
372,432,
361,431,
350,424,
338,419,
332,416,
326,416,
319,414,
310,414,
298,413,
300,415,
295,417,
289,421,
283,424,
281,427,
278,431,
277,435,
276,440,
273,446,
274,454,
275,458,
277,464,
278,472,
