PPG A0,PPG A1,event_code
317,545,
318,541,
318,538,
317,537,
314,533,
312,529,
311,524,
314,519,
314,518,
313,516,
307,511,
309,508,
310,502,
310,501,
311,500,
307,497,
306,493,
307,490,
307,489,
305,488,
303,487,
301,483,
303,480,
303,480,
302,480,
302,479,
299,476,
301,473,
301,473,
299,475,
298,474,
297,472,
296,470,
296,470,
296,471,
291,469,
290,466,
292,464,
293,464,
291,465,
289,463,
287,463,
287,459,
288,460,
289,462,
287,461,
284,462,
284,459,
285,459,
286,461,
283,461,
281,460,
282,458,
282,456,
283,458,
282,458,
281,458,
281,455,
282,454,
283,456,
282,455,
279,454,
279,453,
279,451,
282,455,
280,455,
279,455,
277,453,
280,454,
280,455,
280,458,
279,460,
278,461,
280,463,
280,469,
281,477,
280,486,
280,494,
282,503,
285,518,
286,533,
288,549,
290,564,
295,582,
303,603,
306,624,
309,645,
315,663,
324,683,
331,704,
338,724,
342,742,
351,760,
358,774,
369,790,
376,802,
381,814,
387,822,
391,828,
402,835,
407,841,
414,845,
416,845,
423,843,
427,843,
431,841,
436,839,
435,834,
438,828,
441,822,
441,817,
440,814,
439,806,
437,799,
437,791,
437,788,
434,782,
432,776,
429,768,
429,760,
428,756,
424,751,
420,745,
415,738,
415,732,
413,731,
408,728,
404,724,
401,717,
399,713,
399,711,
394,707,
391,702,
385,693,
384,686,
382,680,
378,674,
370,667,
368,657,
365,647,
365,641,
360,634,
354,625,
352,618,
348,609,
348,603,
345,598,
340,593,
335,587,
332,581,
333,577,
330,576,
329,573,
326,570,
322,566,
325,566,
321,567,
321,567,
318,566,
318,563,
319,561,
318,563,
315,565,
315,566,
316,564,
316,563,
319,564,
320,567,
316,566,
317,564,
319,561,
319,564,
317,564,
317,563,
317,560,
319,557,
320,557,
320,557,
320,555,
316,550,
318,546,
319,543,
320,542,
319,537,
314,532,
316,527,
314,524,
314,521,
310,518,
308,512,
307,506,
310,503,
306,500,
306,496,
306,492,
306,487,
308,484,
306,482,
305,477,
303,474,
303,471,
304,467,
305,467,
302,466,
299,463,
299,458,
301,457,
300,457,
298,458,
295,456,
294,451,
296,450,
295,449,
293,448,
290,446,
290,442,
292,439,
289,440,
289,438,
287,437,
287,435,
288,431,
288,433,
287,433,
286,432,
285,430,
289,429,
288,429,
286,431,
286,430,
284,428,
285,429,
287,430,
285,432,
282,433,
280,430,
283,428,
285,430,
285,431,
283,431,
283,428,
284,426,
287,426,
287,427,
283,426,
285,425,
285,424,
288,424,
286,425,
284,424,
285,425,
285,423,
287,423,
286,427,
285,430,
284,433,
285,436,
287,443,
287,454,
288,466,
289,479,
291,492,
294,509,
294,527,
298,551,
301,573,
304,595,
312,620,
316,646,
323,671,
328,697,
334,722,
341,744,
349,769,
357,793,
361,813,
370,831,
379,846,
385,863,
395,879,
402,892,
407,899,
418,905,
424,913,
430,917,
433,920,
435,920,
443,918,
448,918,
451,917,
448,915,
451,909,
453,901,
457,897,
456,893,
455,887,
452,879,
453,869,
451,863,
450,857,
446,848,
442,840,
440,831,
439,823,
434,818,
430,811,
425,803,
422,795,
421,788,
416,784,
413,778,
408,771,
406,762,
403,755,
401,750,
396,744,
391,735,
391,725,
390,715,
387,707,
382,699,
378,689,
375,676,
372,663,
371,654,
367,646,
360,633,
357,622,
354,610,
352,604,
348,596,
347,588,
344,579,
343,571,
342,565,
335,562,
333,557,
330,551,
330,547,
329,545,
327,542,
325,540,
321,537,
322,534,
323,534,
323,535,
321,534,
320,532,
322,530,
321,530,
320,531,
316,531,
317,530,
317,527,
318,528,
318,529,
316,527,
314,526,
315,522,
317,520,
315,520,
315,517,
316,514,
317,509,
323,506,
321,504,
320,501,
318,496,
320,490,
321,485,
319,483,
319,477,
318,471,
318,464,
318,457,
317,453,
313,449,
312,443,
313,435,
310,429,
312,428,
310,423,
307,420,
302,413,
305,408,
305,406,
305,405,
300,401,
298,396,
300,392,
299,391,
297,391,
295,391,
295,387,
296,384,
294,384,
293,383,
291,382,
291,379,
291,376,
292,376,
289,376,
289,377,
289,376,
289,373,
290,373,
290,375,
287,373,
288,375,
290,372,
291,373,
291,375,
289,376,
287,377,
288,375,
289,376,
287,377,
287,379,
285,377,
286,375,
287,375,
287,377,
287,378,
286,379,
286,376,
287,375,
287,377,
285,378,
285,377,
284,374,
287,373,
288,375,
288,376,
288,376,
289,374,
289,372,
290,374,
287,374,
289,375,
286,371,
288,369,
287,370,
288,373,
287,373,
286,374,
288,375,
288,379,
286,386,
284,394,
284,402,
286,411,
289,425,
286,443,
286,462,
289,482,
293,500,
296,526,
301,553,
302,580,
308,608,
315,633,
326,661,
331,691,
336,717,
341,742,
350,764,
359,786,
367,810,
373,830,
380,847,
388,857,
396,871,
402,882,
407,891,
412,896,
417,899,
424,901,
428,903,
430,903,
433,901,
435,898,
440,892,
442,888,
444,884,
442,878,
441,870,
443,859,
445,855,
443,848,
442,841,
439,831,
441,821,
438,813,
437,808,
432,801,
430,790,
429,781,
427,774,
423,767,
419,760,
415,751,
416,741,
414,736,
412,730,
408,724,
401,716,
402,705,
404,698,
400,688,
394,680,
393,670,
392,657,
390,649,
388,640,
384,629,
380,618,
378,605,
381,593,
376,584,
373,575,
371,565,
370,553,
370,545,
369,539,
365,533,
363,526,
362,518,
361,512,
360,510,
358,506,
355,503,
353,498,
352,494,
351,494,
347,494,
341,492,
343,491,
342,488,
342,489,
340,491,
337,490,
333,489,
335,485,
335,487,
333,487,
332,486,
329,483,
332,480,
331,478,
330,478,
327,479,
330,474,
330,472,
332,470,
332,470,
332,468,
329,463,
330,460,
332,457,
328,458,
328,456,
328,453,
330,448,
332,446,
331,445,
328,442,
327,439,
330,434,
330,432,
328,431,
325,430,
325,426,
323,421,
324,418,
324,419,
320,417,
318,414,
317,408,
318,404,
317,403,
313,401,
311,398,
310,393,
309,390,
308,390,
304,388,
303,385,
301,380,
300,376,
300,375,
297,373,
295,370,
295,368,
295,363,
296,363,
294,362,
294,361,
291,357,
293,356,
295,357,
294,358,
292,357,
291,354,
292,353,
293,354,
291,356,
290,357,
288,357,
290,356,
292,357,
290,359,
289,361,
289,361,
291,359,
295,361,
293,362,
290,363,
292,363,
292,361,
294,362,
294,364,
293,364,
292,364,
292,363,
296,363,
295,365,
295,365,
293,364,
294,362,
298,361,
298,363,
297,365,
295,363,
295,363,
297,362,
297,364,
294,364,
295,363,
296,361,
297,362,
297,364,
297,366,
295,370,
298,373,
297,375,
301,385,
301,394,
300,404,
301,414,
306,426,
306,441,
308,459,
308,475,
312,492,
317,510,
322,532,
326,552,
330,574,
335,592,
342,609,
350,628,
355,647,
361,663,
367,676,
373,687,
383,700,
390,712,
391,718,
396,728,
405,732,
414,736,
420,740,
418,738,
420,742,
428,739,
433,735,
435,731,
436,729,
432,723,
438,717,
444,711,
444,706,
442,700,
438,694,
438,687,
440,679,
438,673,
435,666,
433,659,
430,653,
430,644,
429,639,
425,634,
420,627,
418,622,
415,613,
417,608,
411,604,
406,595,
402,590,
404,579,
403,575,
397,569,
393,561,
387,551,
389,542,
386,533,
382,526,
376,517,
371,509,
371,499,
371,491,
365,484,
357,477,
354,469,
354,461,
353,456,
349,452,
343,447,
340,443,
338,437,
340,434,
337,432,
328,428,
326,427,
329,426,
326,424,
321,426,
319,423,
310,424,
314,423,
313,423,
311,425,
310,426,
304,426,
304,423,
307,425,
305,426,
303,427,
300,429,
302,428,
305,427,
308,428,
305,428,
304,427,
307,426,
307,422,
310,423,
308,422,
307,419,
309,419,
308,412,
313,413,
312,412,
308,409,
306,407,
311,406,
310,403,
309,404,
306,400,
306,397,
307,395,
308,392,
305,389,
303,390,
299,386,
302,383,
305,380,
300,379,
299,378,
296,377,
296,374,
298,373,
299,371,
291,368,
287,366,
293,365,
295,363,
295,362,
292,359,
288,360,
289,357,
292,355,
288,355,
290,353,
286,351,
290,350,
293,347,
291,347,
287,348,
284,347,
285,347,
288,347,
290,348,
284,350,
282,351,
282,350,
287,348,
285,349,
281,350,
276,349,
278,350,
273,348,
278,350,
276,352,
272,351,
271,352,
272,350,
271,351,
273,353,
268,352,
267,354,
270,353,
270,354,
268,354,
267,354,
265,355,
268,354,
272,357,
269,357,
270,357,
265,357,
271,357,
274,356,
273,356,
272,356,
274,358,
276,356,
282,355,
281,357,
278,355,
278,358,
279,357,
285,356,
285,358,
282,360,
280,361,
282,361,
290,365,
288,369,
287,376,
286,383,
287,390,
293,398,
292,406,
290,417,
290,427,
293,440,
297,449,
301,463,
302,476,
303,490,
309,504,
315,514,
324,529,
327,542,
332,553,
340,565,
349,571,
360,579,
365,591,
370,597,
374,603,
390,602,
397,608,
401,610,
409,611,
410,611,
420,608,
429,606,
431,603,
433,599,
435,595,
442,590,
445,584,
446,580,
443,575,
442,569,
443,563,
445,556,
445,551,
436,545,
436,541,
437,536,
438,531,
434,524,
428,519,
423,518,
417,511,
415,506,
412,502,
407,499,
402,495,
397,488,
399,483,
397,480,
393,477,
386,472,
384,467,
384,461,
380,456,
378,453,
370,447,
369,444,
367,439,
367,437,
361,435,
356,431,
355,429,
352,423,
352,422,
349,423,
345,421,
340,421,
343,419,
340,418,
338,419,
335,419,
328,418,
332,417,
332,417,
330,420,
328,421,
327,423,
326,423,
328,425,
323,428,
322,428,
317,431,
321,429,
324,431,
322,433,
318,433,
316,432,
316,432,
324,436,
320,438,
317,436,
316,438,
314,437,
321,437,
317,437,
317,437,
313,435,
315,434,
317,433,
319,433,
317,433,
312,431,
318,430,
319,428,
318,424,
315,424,
312,422,
313,419,
315,418,
316,417,
314,416,
312,413,
312,413,
314,409,
311,408,
312,407,
307,404,
306,404,
309,400,
309,403,
308,401,
305,403,
302,401,
306,399,
305,398,
305,400,
298,398,
295,398,
299,397,
295,398,
294,398,
293,402,
289,398,
292,398,
296,398,
294,399,
288,399,
289,400,
289,399,
295,400,
293,400,
286,399,
288,400,
287,401,
290,402,
288,404,
283,405,
281,406,
281,404,
287,405,
284,405,
283,407,
280,407,
281,406,
285,405,
284,407,
283,408,
279,408,
280,408,
286,407,
286,409,
285,410,
281,411,
283,411,
284,408,
286,409,
284,410,
280,410,
281,412,
284,410,
287,412,
284,412,
284,415,
282,414,
285,411,
286,411,
284,411,
281,412,
281,411,
283,409,
283,408,
282,409,
280,408,
281,409,
283,409,
286,411,
285,412,
280,414,
280,417,
282,419,
286,424,
284,430,
284,436,
279,445,
288,451,
292,458,
294,467,
295,474,
299,485,
302,492,
310,501,
315,511,
319,520,
320,528,
330,535,
340,540,
347,548,
353,553,
358,558,
366,559,
375,559,
382,562,
388,562,
393,563,
399,561,
409,558,
414,557,
415,555,
417,550,
423,549,
428,540,
435,539,
435,534,
435,529,
436,525,
442,518,
444,515,
442,509,
441,507,
436,502,
440,498,
436,495,
435,493,
430,489,
425,486,
426,483,
425,480,
420,479,
414,478,
409,474,
406,472,
406,471,
405,471,
397,467,
393,464,
396,463,
388,459,
383,457,
376,454,
372,453,
369,449,
370,448,
364,448,
359,447,
354,445,
351,443,
357,442,
351,442,
347,441,
338,441,
341,440,
341,439,
337,441,
335,441,
330,442,
326,442,
329,442,
327,445,
324,446,
318,448,
320,449,
319,447,
320,450,
319,454,
314,452,
316,455,
314,452,
321,457,
318,459,
317,460,
314,460,
320,459,
319,459,
318,461,
317,462,
314,463,
318,461,
321,460,
317,462,
318,461,
315,461,
317,458,
319,458,
316,457,
314,455,
312,456,
316,451,
319,452,
316,451,
311,449,
308,450,
312,448,
314,446,
310,445,
307,445,
304,446,
306,446,
308,444,
308,444,
305,443,
299,442,
299,442,
302,440,
301,440,
299,441,
295,439,
295,439,
298,437,
297,437,
294,437,
292,436,
293,437,
297,436,
296,435,
294,436,
289,435,
289,436,
287,432,
289,438,
288,437,
287,438,
285,437,
292,438,
291,439,
289,440,
285,439,
286,440,
287,440,
288,440,
286,441,
286,441,
283,441,
287,441,
289,442,
288,441,
287,442,
282,441,
286,439,
291,441,
288,440,
285,441,
281,442,
285,441,
290,440,
288,442,
281,438,
281,441,
280,439,
285,440,
280,440,
282,439,
279,438,
277,437,
282,440,
280,440,
280,441,
278,442,
279,443,
280,443,
281,447,
279,451,
277,455,
275,460,
286,465,
285,472,
285,479,
285,486,
288,494,
291,498,
295,507,
299,516,
299,522,
306,530,
315,535,
321,544,
324,550,
329,556,
333,558,
346,562,
352,565,
358,568,
361,568,
367,569,
379,567,
385,567,
389,566,
391,563,
396,560,
404,558,
410,553,
413,551,
413,547,
416,541,
420,536,
426,531,
425,527,
421,522,
421,520,
424,514,
427,508,
424,506,
424,502,
417,499,
415,494,
419,490,
416,488,
411,488,
406,485,
403,483,
405,482,
401,482,
397,481,
392,479,
388,478,
390,475,
387,475,
382,474,
377,474,
369,471,
373,469,
371,468,
367,470,
358,469,
356,467,
354,461,
353,463,
348,463,
342,462,
336,463,
340,460,
338,461,
336,461,
328,462,
325,463,
330,463,
328,464,
324,466,
321,465,
319,468,
320,468,
320,469,
321,471,
317,472,
316,474,
317,475,
320,478,
316,479,
313,480,
308,482,
314,481,
317,482,
316,484,
315,482,
314,485,
316,485,
318,485,
318,485,
317,486,
314,484,
318,482,
318,480,
320,480,
317,479,
315,476,
315,476,
318,473,
317,472,
314,470,
312,471,
312,469,
314,466,
314,466,
312,465,
309,465,
311,462,
308,458,
309,459,
308,459,
305,458,
303,459,
306,454,
306,456,
302,455,
302,457,
296,454,
299,452,
299,454,
295,453,
290,453,
289,452,
290,452,
289,452,
288,454,
284,455,
281,456,
282,455,
284,456,
283,457,
280,458,
279,459,
278,457,
283,458,
283,461,
276,460,
279,464,
277,462,
283,463,
282,463,
280,465,
275,464,
277,463,
282,462,
278,463,
281,464,
278,463,
280,463,
284,463,
281,464,
283,465,
278,462,
282,463,
285,461,
286,462,
284,461,
280,460,
283,460,
282,458,
286,460,
283,460,
281,460,
279,461,
282,458,
286,462,
283,464,
282,468,
278,469,
285,472,
285,475,
284,482,
281,487,
283,493,
288,500,
289,508,
291,517,
292,523,
295,533,
298,540,
304,545,
307,555,
311,561,
315,568,
325,573,
335,577,
339,583,
343,584,
350,588,
356,588,
370,590,
375,591,
380,589,
385,588,
392,585,
405,583,
411,580,
415,577,
418,575,
423,569,
428,565,
433,562,
433,558,
432,553,
436,549,
439,544,
440,541,
439,538,
435,535,
434,530,
436,526,
432,524,
431,520,
424,519,
424,516,
420,511,
420,511,
413,509,
409,508,
404,505,
405,504,
402,504,
398,502,
392,504,
387,499,
385,497,
386,496,
379,496,
374,496,
368,492,
367,491,
364,489,
363,491,
357,489,
353,487,
351,488,
353,488,
347,488,
338,485,
333,485,
335,485,
333,483,
333,483,
325,483,
322,485,
320,484,
323,484,
317,488,
318,487,
315,489,
314,488,
318,490,
319,492,
314,493,
311,495,
313,494,
316,493,
315,495,
314,497,
313,498,
311,497,
316,497,
313,498,
315,498,
314,498,
316,499,
317,496,
320,497,
319,498,
316,498,
318,495,
321,493,
321,494,
323,495,
319,493,
316,490,
318,488,
321,487,
320,486,
318,485,
316,484,
319,482,
319,481,
315,480,
313,479,
309,478,
311,476,
313,474,
310,474,
305,474,
303,474,
305,471,
306,470,
304,470,
300,469,
297,471,
297,469,
299,469,
298,470,
294,469,
291,469,
291,468,
293,467,
294,468,
290,469,
287,470,
287,470,
290,469,
286,470,
285,471,
281,471,
281,471,
283,471,
284,472,
279,473,
275,473,
277,474,
278,473,
275,475,
276,475,
273,475,
275,475,
274,471,
276,472,
276,474,
273,473,
269,473,
274,472,
277,474,
275,475,
271,474,
270,474,
272,473,
276,473,
272,472,
272,473,
271,473,
274,472,
275,473,
276,473,
275,473,
273,473,
275,471,
280,472,
280,474,
276,475,
276,479,
279,481,
282,483,
283,489,
283,492,
282,501,
285,505,
291,513,
294,523,
294,532,
296,540,
302,549,
310,557,
312,569,
318,578,
322,587,
330,595,
338,601,
347,610,
353,615,
359,622,
369,626,
381,628,
384,633,
394,636,
399,638,
408,640,
416,637,
428,637,
433,638,
435,635,
443,634,
449,626,
455,627,
455,624,
461,622,
458,617,
468,611,
466,607,
466,604,
465,601,
462,597,
466,592,
466,589,
462,584,
460,584,
455,580,
455,576,
453,574,
451,573,
444,571,
441,569,
437,566,
436,564,
433,563,
420,559,
419,561,
420,557,
417,555,
410,554,
404,552,
398,550,
399,546,
397,544,
393,542,
387,540,
381,538,
376,533,
378,530,
372,527,
366,525,
360,523,
357,522,
356,518,
351,517,
350,517,
342,517,
342,517,
341,515,
336,516,
337,517,
331,517,
333,518,
332,514,
331,518,
334,521,
329,522,
323,522,
332,523,
330,524,
329,525,
326,526,
323,526,
325,527,
326,525,
326,527,
321,528,
323,527,
325,525,
329,525,
327,524,
325,524,
321,523,
324,521,
329,520,
325,519,
321,516,
320,517,
322,515,
326,514,
328,512,
324,510,
322,511,
321,507,
327,506,
326,505,
323,502,
319,501,
320,498,
324,497,
321,495,
319,494,
316,491,
316,490,
319,489,
317,488,
314,488,
311,488,
311,486,
311,484,
311,483,
309,482,
304,480,
302,481,
302,477,
304,479,
301,478,
298,478,
289,477,
297,475,
298,476,
297,475,
292,475,
288,475,
291,475,
291,475,
289,476,
285,476,
283,476,
285,476,
286,476,
286,476,
285,477,
280,476,
286,476,
288,478,
287,477,
287,477,
283,480,
285,478,
288,476,
287,480,
281,477,
283,480,
284,477,
288,478,
290,477,
288,478,
285,477,
284,475,
287,475,
288,477,
286,476,
282,477,
281,475,
287,476,
285,475,
283,475,
281,474,
281,470,
286,470,
285,471,
285,470,
279,470,
278,470,
281,466,
282,467,
282,468,
279,466,
279,467,
282,465,
281,466,
282,471,
281,473,
279,476,
283,481,
284,487,
284,497,
282,504,
282,513,
291,523,
292,533,
295,546,
295,558,
298,571,
304,585,
311,598,
315,613,
319,626,
322,640,
331,652,
341,663,
343,676,
348,684,
357,695,
365,703,
375,711,
382,719,
388,723,
395,728,
405,730,
414,732,
421,733,
427,733,
431,733,
435,730,
445,727,
450,725,
452,721,
451,716,
456,712,
462,707,
463,703,
463,699,
460,695,
460,689,
461,686,
463,682,
461,679,
453,675,
454,675,
449,667,
450,664,
445,662,
442,659,
436,657,
438,653,
435,650,
429,649,
423,646,
417,640,
418,640,
415,635,
410,634,
403,630,
398,629,
398,624,
398,620,
392,617,
389,614,
382,610,
380,604,
380,600,
373,596,
368,592,
365,587,
362,582,
365,578,
360,576,
355,572,
351,572,
350,569,
354,567,
346,569,
343,565,
339,564,
337,562,
339,560,
333,559,
332,562,
326,560,
327,560,
329,560,
329,562,
322,562,
320,562,
323,563,
325,562,
326,563,
323,564,
322,564,
322,565,
323,560,
327,562,
324,562,
323,561,
322,561,
327,556,
329,557,
327,556,
325,555,
322,553,
325,549,
326,548,
325,545,
322,543,
319,541,
322,536,
324,534,
320,530,
317,526,
314,525,
318,520,
316,515,
315,514,
313,512,
308,509,
311,506,
310,504,
310,503,
303,498,
305,499,
303,495,
309,495,
306,494,
303,493,
299,491,
299,490,
303,488,
300,487,
299,486,
293,483,
294,483,
295,481,
292,481,
292,480,
289,479,
290,480,
293,479,
294,477,
291,478,
286,477,
286,476,
287,473,
287,475,
285,474,
282,474,
283,474,
282,471,
283,474,
284,474,
281,475,
278,473,
284,475,
283,471,
281,473,
281,475,
278,475,
281,473,
283,474,
281,477,
279,475,
278,477,
280,474,
281,475,
279,473,
277,474,
277,475,
277,472,
281,472,
281,473,
276,471,
276,472,
278,470,
280,468,
283,470,
283,466,
277,467,
278,465,
283,463,
281,464,
280,465,
276,464,
276,463,
279,460,
277,460,
276,461,
274,461,
273,460,
277,458,
275,458,
275,457,
271,455,
273,456,
276,454,
278,456,
276,456,
273,455,
274,457,
275,455,
280,459,
278,462,
277,466,
275,470,
282,476,
282,486,
282,497,
281,508,
281,520,
287,534,
290,551,
289,567,
290,585,
294,603,
302,620,
307,640,
311,660,
317,678,
320,697,
334,714,
341,732,
348,749,
351,763,
359,778,
368,788,
379,799,
388,810,
388,815,
401,824,
408,827,
418,830,
426,831,
428,834,
430,833,
438,831,
447,829,
448,825,
454,822,
453,815,
458,811,
462,803,
462,799,
461,794,
460,788,
461,782,
463,773,
463,768,
459,762,
455,756,
454,751,
453,743,
454,740,
449,736,
443,731,
440,726,
441,719,
439,718,
435,715,
429,711,
420,706,
420,702,
419,697,
415,692,
405,687,
399,681,
398,674,
396,668,
390,660,
385,654,
378,646,
379,639,
377,632,
373,625,
365,620,
359,614,
362,607,
364,603,
358,598,
352,592,
350,589,
351,586,
349,582,
347,579,
346,578,
335,576,
337,574,
337,573,
336,573,
333,573,
330,573,
332,572,
334,571,
333,573,
331,575,
327,572,
331,574,
334,574,
331,573,
332,574,
329,574,
330,573,
331,570,
334,571,
331,569,
328,568,
329,567,
331,562,
333,561,
332,560,
331,558,
327,554,
330,549,
331,545,
329,544,
327,540,
322,537,
328,532,
325,528,
326,524,
323,520,
320,517,
322,511,
320,506,
320,505,
318,500,
314,497,
312,491,
316,488,
309,485,
308,482,
308,480,
309,474,
311,472,
310,471,
304,464,
301,464,
302,460,
305,458,
304,456,
301,455,
298,454,
294,451,
298,448,
294,448,
291,446,
289,445,
287,443,
289,439,
289,440,
285,439,
284,440,
283,437,
285,434,
286,436,
281,437,
278,436,
279,435,
280,433,
280,432,
281,435,
276,434,
277,434,
281,434,
282,434,
281,434,
277,434,
276,433,
281,433,
283,432,
280,433,
279,432,
279,432,
283,431,
284,430,
281,430,
279,430,
277,431,
281,431,
281,430,
281,431,
277,429,
276,431,
276,428,
279,428,
278,429,
273,427,
275,428,
276,427,
278,428,
277,428,
277,430,
273,428,
276,427,
277,426,
277,427,
276,427,
275,428,
273,426,
280,424,
276,425,
281,425,
276,425,
278,424,
279,422,
281,422,
279,421,
274,422,
275,421,
274,418,
276,419,
271,419,
272,419,
271,417,
275,416,
276,416,
274,418,
274,419,
272,418,
275,422,
278,426,
276,431,
272,439,
271,445,
276,454,
279,467,
281,482,
280,497,
277,514,
286,532,
288,552,
296,574,
296,596,
302,620,
310,642,
317,667,
326,690,
325,711,
334,734,
343,752,
355,771,
363,789,
367,804,
376,818,
385,828,
397,837,
404,846,
410,853,
416,858,
423,859,
432,859,
437,859,
440,857,
443,853,
448,848,
454,842,
459,836,
459,830,
456,823,
461,814,
462,803,
463,793,
464,786,
458,776,
458,766,
457,755,
459,748,
452,740,
447,731,
442,722,
446,716,
443,708,
437,700,
433,694,
426,687,
426,678,
423,672,
418,666,
413,660,
408,655,
407,650,
404,642,
398,636,
394,629,
389,622,
386,613,
387,605,
379,597,
370,589,
367,582,
368,576,
367,568,
363,563,
356,555,
350,552,
350,548,
349,542,
345,539,
340,536,
334,533,
333,528,
333,526,
332,525,
328,525,
324,523,
322,523,
327,522,
325,522,
322,522,
320,523,
319,520,
322,522,
323,523,
319,524,
318,523,
320,524,
320,522,
326,525,
324,525,
323,524,
323,523,
328,521,
324,520,
326,520,
324,520,
322,517,
326,515,
327,510,
326,509,
325,506,
325,502,
327,498,
330,494,
326,490,
323,487,
320,484,
323,478,
324,474,
323,471,
318,467,
317,462,
317,456,
321,451,
317,447,
312,441,
312,440,
311,434,
314,433,
312,430,
309,427,
305,425,
304,421,
306,417,
304,416,
299,414,
295,415,
296,412,
297,407,
296,408,
293,407,
288,407,
288,405,
291,403,
289,401,
288,400,
287,399,
289,399,
288,396,
290,397,
290,398,
286,397,
287,398,
290,395,
289,396,
289,399,
285,397,
283,396,
286,396,
286,396,
283,398,
280,399,
280,399,
283,398,
284,399,
283,400,
279,401,
278,401,
282,401,
280,400,
283,403,
280,401,
279,400,
281,401,
285,401,
284,402,
278,402,
281,404,
283,402,
286,404,
285,402,
283,404,
281,401,
284,402,
288,402,
288,403,
285,402,
283,402,
282,401,
284,400,
285,402,
285,401,
281,401,
282,400,
284,398,
286,397,
283,400,
280,400,
284,399,
286,397,
286,399,
282,399,
283,398,
281,399,
282,393,
284,396,
283,399,
282,399,
281,397,
283,396,
282,397,
284,397,
280,397,
278,397,
282,395,
284,396,
281,396,
278,396,
278,396,
279,396,
281,396,
280,400,
276,405,
275,411,
280,416,
281,424,
282,434,
276,445,
277,460,
279,472,
282,487,
285,504,
285,521,
281,543,
289,560,
297,582,
298,604,
305,626,
310,646,
319,666,
326,684,
336,702,
342,719,
345,733,
357,747,
369,757,
379,767,
384,776,
390,783,
399,785,
409,788,
418,788,
423,788,
424,786,
431,779,
436,773,
444,770,
447,764,
448,757,
448,748,
454,739,
456,731,
456,723,
453,713,
452,702,
457,692,
455,683,
453,673,
447,664,
443,656,
442,648,
437,639,
435,632,
430,625,
424,619,
422,611,
420,604,
413,601,
407,593,
403,588,
403,583,
401,578,
395,570,
388,563,
384,561,
380,554,
382,547,
374,543,
370,536,
365,530,
361,523,
362,515,
358,508,
353,508,
347,504,
343,500,
346,496,
340,494,
340,492,
336,490,
335,489,
334,486,
331,486,
331,488,
330,488,
328,488,
326,485,
328,487,
325,489,
321,491,
319,492,
323,489,
323,490,
322,493,
319,494,
318,493,
324,493,
320,491,
323,492,
319,492,
317,491,
323,491,
325,490,
323,490,
322,488,
320,487,
323,484,
327,482,
325,480,
323,477,
322,477,
325,472,
327,469,
327,468,
322,464,
323,464,
324,459,
329,457,
325,455,
325,452,
320,450,
321,444,
325,442,
323,440,
321,438,
317,436,
315,434,
320,429,
318,428,
314,426,
310,425,
310,421,
312,418,
310,416,
307,416,
302,414,
300,413,
300,408,
301,409,
294,408,
293,407,
288,408,
289,402,
289,404,
289,405,
288,405,
284,401,
289,401,
291,401,
287,401,
287,401,
286,398,
288,399,
290,400,
289,400,
286,401,
284,400,
289,401,
289,399,
291,403,
286,400,
285,401,
285,400,
288,401,
288,402,
281,400,
280,403,
285,402,
284,400,
283,401,
282,402,
280,404,
282,404,
285,405,
287,407,
284,409,
281,409,
282,408,
284,408,
285,410,
281,410,
280,409,
279,410,
283,408,
283,408,
283,412,
279,410,
281,411,
279,409,
280,411,
280,413,
274,410,
275,411,
276,405,
280,407,
279,407,
276,408,
276,407,
278,406,
276,405,
280,407,
277,407,
275,404,
277,402,
279,400,
280,400,
277,401,
278,399,
280,398,
281,398,
282,399,
279,399,
279,398,
281,400,
284,400,
283,401,
279,400,
279,406,
281,408,
285,412,
282,418,
281,422,
278,432,
282,441,
285,450,
285,461,
287,474,
284,488,
288,503,
293,517,
296,532,
299,550,
301,565,
306,585,
313,598,
317,616,
323,632,
330,646,
337,657,
347,665,
352,677,
360,687,
367,694,
373,700,
381,701,
392,706,
398,706,
405,708,
410,706,
419,701,
426,699,
430,693,
433,689,
436,681,
445,672,
448,665,
450,659,
448,649,
445,641,
453,631,
454,622,
452,613,
448,605,
446,595,
445,588,
445,580,
439,573,
434,565,
431,559,
430,553,
431,548,
425,543,
417,535,
413,534,
410,528,
409,525,
404,521,
397,518,
392,514,
388,509,
389,505,
384,500,
377,497,
370,495,
366,490,
365,484,
362,481,
357,480,
350,477,
350,475,
348,473,
343,471,
342,471,
336,471,
335,470,
332,467,
331,468,
329,470,
322,470,
322,473,
323,470,
324,473,
320,475,
317,477,
319,478,
318,478,
320,480,
317,483,
316,481,
312,482,
318,482,
321,484,
319,486,
317,486,
316,484,
320,487,
323,484,
322,486,
321,485,
320,485,
324,483,
328,482,
327,480,
321,476,
323,478,
325,475,
330,474,
326,474,
325,470,
321,467,
324,463,
327,460,
320,460,
320,459,
318,455,
317,452,
319,447,
318,446,
315,445,
312,441,
313,440,
315,435,
315,434,
310,434,
307,433,
306,432,
305,428,
306,427,
305,427,
302,425,
298,426,
304,421,
303,422,
300,422,
297,421,
294,420,
297,418,
294,417,
295,418,
291,419,
290,418,
293,417,
294,417,
293,418,
291,418,
288,418,
289,416,
290,416,
289,417,
287,417,
284,418,
286,418,
289,417,
286,419,
279,418,
279,421,
282,420,
282,419,
280,421,
277,421,
274,420,
277,418,
277,419,
277,421,
275,422,
273,421,
274,420,
277,421,
273,421,
275,423,
272,421,
270,422,
277,422,
277,423,
276,424,
273,425,
275,425,
277,422,
280,423,
280,426,
274,425,
279,425,
279,422,
283,426,
281,424,
281,424,
279,423,
283,424,
285,424,
283,423,
282,424,
281,422,
282,422,
285,420,
281,422,
279,421,
273,420,
279,419,
282,419,
280,419,
278,418,
277,419,
278,416,
281,417,
279,418,
276,416,
272,417,
276,416,
280,419,
281,419,
277,419,
272,423,
278,426,
279,428,
278,434,
275,440,
274,448,
273,454,
278,463,
277,472,
276,485,
275,496,
278,508,
283,520,
288,536,
291,549,
293,564,
298,577,
305,588,
311,601,
315,614,
317,624,
325,634,
331,638,
343,648,
349,653,
355,658,
358,662,
373,662,
377,662,
387,663,
391,660,
397,657,
408,653,
413,650,
420,644,
424,638,
426,631,
432,622,
438,616,
439,610,
436,602,
438,593,
440,585,
443,577,
442,570,
437,562,
436,556,
436,550,
435,543,
432,538,
428,530,
424,527,
420,522,
423,515,
420,513,
415,509,
408,506,
404,500,
405,497,
399,495,
394,493,
387,491,
385,487,
383,484,
378,483,
374,481,
365,478,
363,476,
362,472,
354,471,
352,471,
348,469,
343,468,
342,464,
341,466,
336,466,
337,466,
331,466,
333,466,
331,466,
327,469,
324,470,
319,470,
322,470,
321,472,
319,475,
314,477,
313,476,
314,479,
316,480,
313,479,
312,483,
311,485,
315,485,
317,484,
314,487,
317,487,
317,490,
323,491,
323,490,
321,491,
315,488,
317,491,
318,488,
320,487,
319,488,
318,487,
316,486,
315,483,
319,481,
317,478,
313,479,
313,478,
313,475,
316,473,
313,472,
312,470,
311,469,
309,466,
313,464,
313,462,
310,461,
309,459,
309,459,
308,455,
311,456,
308,454,
305,452,
306,452,
308,446,
309,449,
305,449,
303,448,
301,445,
303,443,
303,445,
301,444,
299,443,
292,444,
300,442,
299,440,
294,440,
294,440,
290,438,
295,438,
295,436,
293,437,
292,436,
288,435,
291,436,
294,434,
290,435,
286,433,
284,435,
288,435,
292,435,
292,435,
289,436,
287,436,
287,436,
291,436,
290,438,
289,439,
285,440,
285,438,
288,436,
286,439,
284,441,
281,441,
280,441,
284,441,
282,442,
280,443,
276,444,
277,445,
280,442,
280,445,
278,443,
274,446,
276,447,
278,443,
277,446,
279,447,
279,448,
277,448,
280,445,
281,446,
280,446,
278,446,
278,445,
281,445,
284,445,
282,446,
281,446,
279,445,
285,446,
284,446,
282,446,
279,446,
279,447,
282,446,
286,447,
280,452,
278,452,
280,457,
283,463,
287,468,
285,475,
285,485,
286,494,
288,502,
294,512,
297,523,
298,536,
300,547,
301,558,
309,568,
315,580,
317,592,
322,601,
326,610,
335,618,
341,626,
347,632,
346,636,
355,642,
367,643,
375,647,
380,648,
382,646,
386,647,
396,639,
404,639,
408,636,
411,632,
414,627,
422,619,
424,613,
429,608,
430,599,
432,592,
435,585,
440,577,
438,570,
435,564,
434,559,
435,549,
437,545,
432,538,
427,534,
417,529,
420,523,
421,520,
417,516,
408,512,
406,509,
403,504,
403,504,
398,501,
392,498,
384,496,
384,493,
383,490,
380,487,
374,487,
369,484,
367,482,
365,480,
361,479,
355,478,
351,475,
348,476,
351,474,
346,476,
342,476,
338,477,
335,477,
335,477,
334,478,
330,479,
326,481,
326,483,
323,481,
326,485,
321,487,
323,488,
320,490,
326,490,
327,492,
323,494,
321,497,
320,498,
323,497,
324,499,
322,501,
321,502,
321,503,
324,503,
327,502,
325,501,
325,503,
323,503,
326,501,
328,501,
328,500,
326,499,
323,500,
326,496,
330,496,
331,492,
327,490,
321,490,
326,488,
332,487,
331,486,
330,485,
328,482,
328,478,
332,478,
331,477,
329,477,
325,475,
327,474,
326,470,
323,470,
325,468,
320,467,
321,464,
319,463,
321,463,
319,464,
315,462,
316,461,
314,456,
311,458,
312,459,
309,457,
305,457,
309,456,
309,454,
306,456,
305,457,
303,456,
304,454,
304,454,
303,455,
298,456,
298,456,
299,455,
299,457,
297,456,
294,457,
288,456,
296,456,
294,456,
292,457,
286,456,
286,459,
288,457,
290,457,
289,458,
285,456,
284,460,
284,459,
288,459,
286,461,
284,460,
284,461,
284,460,
285,461,
287,462,
285,462,
281,463,
283,462,
285,460,
287,460,
286,461,
286,462,
286,461,
289,459,
288,461,
288,460,
284,460,
284,460,
286,459,
290,462,
286,464,
287,468,
287,472,
289,473,
291,483,
291,491,
292,499,
291,505,
296,515,
298,526,
301,538,
306,549,
305,562,
314,573,
318,584,
320,597,
324,607,
327,617,
335,626,
345,635,
352,644,
354,649,
362,657,
370,661,
382,665,
389,669,
393,667,
395,670,
407,669,
419,667,
418,665,
426,660,
428,656,
433,650,
441,646,
443,640,
446,635,
445,629,
447,622,
452,613,
453,608,
449,601,
447,595,
447,588,
446,581,
444,575,
441,570,
436,565,
432,560,
432,554,
430,551,
426,549,
421,545,
414,543,
420,538,
417,538,
409,536,
406,535,
399,532,
399,530,
396,528,
393,525,
385,523,
380,520,
379,517,
379,512,
376,512,
369,510,
366,508,
368,507,
366,504,
361,503,
357,503,
353,503,
353,502,
353,502,
344,505,
340,503,
339,505,
341,506,
341,505,
337,508,
335,508,
332,510,
332,510,
334,511,
332,514,
329,516,
325,516,
326,516,
331,517,
328,517,
327,519,
326,519,
324,520,
331,517,
330,519,
329,520,
327,520,
327,519,
331,517,
333,518,
332,518,
330,517,
332,516,
332,510,
334,513,
336,511,
333,511,
331,508,
334,506,
332,503,
330,503,
330,501,
328,499,
331,496,
334,494,
332,495,
330,492,
328,490,
330,488,
329,485,
327,486,
325,484,
323,482,
326,478,
326,477,
325,475,
318,474,
318,474,
317,472,
319,471,
317,472,
313,469,
312,469,
315,466,
316,467,
313,467,
309,466,
308,467,
307,464,
308,465,
307,465,
308,465,
301,466,
301,467,
302,465,
302,466,
299,466,
294,467,
295,467,
295,464,
297,466,
295,466,
289,466,
293,467,
291,464,
294,468,
292,468,
291,468,
289,467,
293,466,
294,465,
292,469,
289,468,
284,468,
291,467,
292,468,
290,469,
288,468,
285,469,
289,467,
291,468,
290,469,
287,469,
286,469,
289,469,
294,469,
292,470,
287,470,
290,472,
293,472,
296,475,
293,480,
291,482,
289,489,
293,495,
298,502,
300,512,
299,523,
299,535,
302,547,
309,559,
313,575,
315,588,
317,600,
323,614,
335,629,
339,643,
343,655,
345,668,
357,680,
368,688,
375,700,
380,707,
385,712,
392,720,
401,721,
411,726,
416,729,
422,731,
426,730,
436,729,
440,728,
443,726,
443,723,
446,718,
453,713,
456,709,
453,705,
455,700,
456,696,
459,689,
461,685,
460,680,
457,674,
453,669,
454,663,
456,659,
455,656,
448,650,
444,648,
445,643,
445,639,
442,637,
437,632,
433,630,
432,628,
432,624,
422,622,
424,619,
417,616,
416,612,
414,608,
409,607,
405,603,
399,600,
396,594,
396,588,
389,586,
387,581,
381,578,
380,573,
379,567,
376,565,
371,561,
365,560,
364,558,
361,553,
362,554,
357,554,
350,552,
347,550,
348,549,
344,549,
344,551,
341,550,
338,550,
343,552,
342,552,
341,552,
338,554,
338,554,
343,554,
344,554,
342,554,
340,553,
340,554,
345,552,
344,553,
342,553,
339,551,
340,553,
342,550,
346,549,
345,548,
341,545,
340,548,
341,545,
346,543,
343,543,
342,542,
339,537,
335,536,
346,533,
341,531,
338,530,
336,528,
334,524,
337,520,
337,519,
334,516,
333,513,
326,511,
334,506,
328,506,
327,503,
323,503,
323,500,
321,494,
323,493,
320,493,
318,492,
312,489,
320,486,
316,486,
316,487,
314,487,
308,483,
313,483,
314,482,
311,481,
309,480,
308,479,
310,476,
312,477,
309,476,
307,475,
305,474,
308,474,
312,471,
309,473,
306,471,
304,471,
308,470,
308,469,
307,467,
302,466,
303,469,
303,468,
306,468,
304,467,
301,467,
299,468,
300,464,
302,465,
300,464,
299,463,
295,463,
296,463,
300,462,
298,462,
296,462,
295,463,
295,462,
296,462,
298,462,
295,461,
291,460,
294,460,
293,457,
297,459,
294,459,
293,459,
292,458,
294,455,
295,458,
292,458,
293,460,
291,458,
295,459,
298,462,
292,466,
292,470,
292,474,
297,481,
296,491,
299,500,
299,514,
298,525,
303,538,
307,554,
308,572,
308,589,
311,611,
319,630,
327,648,
332,670,
333,687,
341,708,
353,726,
362,742,
368,758,
379,773,
382,786,
395,800,
405,805,
412,816,
419,823,
424,830,
434,833,
445,834,
451,837,
455,837,
458,837,
466,836,
472,831,
477,829,
479,827,
479,822,
483,817,
484,810,
487,808,
485,803,
482,796,
481,792,
482,784,
483,781,
476,776,
474,770,
471,764,
473,761,
471,757,
466,751,
462,748,
456,744,
456,740,
453,735,
448,733,
446,731,
439,725,
438,721,
437,716,
428,713,
425,709,
421,704,
419,696,
419,690,
413,684,
404,675,
400,669,
399,661,
401,652,
397,647,
393,640,
384,632,
385,625,
387,619,
382,614,
380,611,
371,604,
368,599,
373,594,
369,592,
364,589,
360,588,
358,587,
359,582,
357,583,
355,583,
349,583,
351,582,
351,579,
352,581,
348,581,
346,580,
342,581,
346,577,
350,579,
346,579,
345,581,
339,578,
346,579,
342,575,
346,576,
343,574,
342,573,
345,570,
346,567,
345,565,
342,564,
341,560,
343,556,
347,553,
346,550,
343,547,
341,544,
340,538,
343,533,
341,531,
336,526,
336,525,
336,519,
339,516,
334,511,
333,508,
327,504,
326,501,
326,496,
327,491,
323,488,
319,485,
319,482,
322,478,
318,475,
317,473,
314,469,
315,467,
317,461,
311,460,
316,458,
310,455,
306,454,
309,449,
311,450,
309,448,
306,447,
306,444,
307,441,
308,444,
307,443,
302,443,
304,442,
306,440,
306,440,
305,438,
305,438,
301,437,
306,436,
307,437,
303,435,
303,436,
297,434,
304,432,
306,432,
304,431,
300,431,
299,431,
300,430,
303,430,
298,431,
294,432,
293,433,
294,432,
296,433,
295,434,
292,432,
290,433,
291,433,
294,433,
293,434,
293,435,
290,435,
292,434,
296,433,
293,435,
294,434,
292,433,
290,432,
297,429,
296,430,
296,428,
291,427,
294,428,
296,424,
298,425,
300,427,
291,426,
295,425,
294,422,
295,422,
295,426,
292,427,
290,431,
294,433,
295,440,
290,449,
289,458,
291,468,
295,481,
297,496,
299,514,
300,534,
300,553,
306,574,
313,596,
316,623,
319,648,
325,672,
332,696,
345,721,
350,745,
354,767,
362,789,
372,807,
384,825,
388,841,
397,854,
403,868,
412,877,
424,884,
433,892,
438,897,
441,900,
448,900,
455,899,
458,899,
464,896,
463,891,
469,886,
473,881,
475,876,
475,869,
471,863,
474,856,
476,846,
477,841,
472,834,
469,827,
469,819,
467,808,
470,804,
463,797,
460,792,
456,783,
460,775,
454,769,
451,763,
447,758,
445,750,
443,743,
442,735,
437,729,
433,722,
429,715,
428,704,
430,695,
424,689,
416,678,
412,669,
411,657,
409,647,
401,639,
395,627,
391,618,
391,608,
389,598,
386,593,
380,583,
375,579,
373,571,
374,565,
370,562,
368,557,
358,554,
359,548,
360,546,
359,543,
354,542,
352,540,
349,536,
351,536,
352,535,
348,535,
344,535,
347,534,
348,533,
349,534,
345,533,
344,534,
344,535,
346,530,
347,532,
346,531,
344,531,
341,529,
349,524,
346,522,
345,520,
342,517,
341,512,
343,508,
344,506,
343,503,
340,499,
339,495,
342,490,
340,487,
340,483,
334,478,
333,472,
334,468,
337,462,
334,458,
330,454,
328,451,
332,447,
332,442,
330,437,
326,431,
325,430,
325,424,
328,420,
323,417,
322,414,
319,413,
318,408,
318,405,
317,406,
314,403,
308,401,
309,400,
311,396,
309,395,
310,395,
306,394,
306,392,
307,389,
308,390,
304,391,
302,391,
303,388,
302,385,
304,385,
302,385,
300,384,
296,382,
299,379,
299,379,
296,380,
296,379,
295,377,
298,377,
299,378,
296,377,
294,378,
294,377,
297,378,
299,377,
300,380,
296,379,
295,379,
297,378,
301,379,
299,380,
294,380,
294,381,
294,380,
298,379,
298,381,
292,379,
293,383,
295,382,
298,384,
300,386,
295,387,
294,387,
294,386,
300,388,
297,389,
295,390,
292,390,
291,389,
294,386,
292,387,
290,386,
287,383,
285,382,
289,381,
287,380,
288,381,
285,379,
287,379,
286,375,
288,376,
287,376,
283,374,
284,374,
286,370,
288,373,
288,376,
288,376,
283,375,
285,376,
288,378,
285,380,
285,385,
283,389,
287,395,
288,403,
289,415,
288,427,
287,441,
292,458,
297,473,
296,493,
297,514,
300,538,
306,560,
315,584,
317,610,
318,634,
326,662,
331,686,
345,708,
352,733,
358,754,
363,774,
376,790,
388,807,
397,821,
405,833,
413,841,
423,847,
436,852,
436,856,
443,857,
446,858,
453,856,
460,851,
462,846,
464,841,
461,834,
467,828,
466,818,
467,809,
469,800,
466,789,
466,780,
469,768,
466,762,
464,752,
460,743,
454,733,
456,724,
454,714,
450,707,
444,700,
437,693,
440,684,
439,677,
432,670,
428,665,
421,657,
421,648,
420,642,
415,634,
408,627,
400,618,
402,610,
403,599,
397,591,
387,582,
386,575,
384,566,
386,557,
381,548,
375,541,
368,533,
369,524,
370,517,
369,513,
363,509,
360,503,
355,498,
358,496,
357,493,
354,490,
349,488,
347,487,
351,485,
348,485,
345,485,
340,485,
343,486,
341,484,
342,485,
340,485,
336,485,
336,486,
339,483,
341,484,
339,485,
338,486,
338,484,
342,484,
343,483,
341,482,
340,480,
338,478,
340,474,
342,472,
340,470,
336,468,
334,464,
335,459,
335,457,
334,454,
327,451,
328,447,
328,441,
331,438,
329,434,
322,429,
323,426,
322,422,
328,418,
327,416,
323,413,
322,411,
320,405,
327,403,
324,400,
321,397,
319,394,
318,390,
323,387,
321,384,
319,382,
315,380,
316,378,
317,375,
316,372,
314,373,
311,373,
310,371,
311,366,
311,365,
306,366,
300,364,
298,366,
301,361,
302,363,
301,362,
297,365,
295,363,
301,361,
298,361,
296,360,
290,362,
286,360,
291,361,
293,361,
293,361,
290,361,
287,361,
289,359,
292,359,
292,358,
288,360,
287,361,
288,360,
295,359,
290,361,
286,361,
287,362,
289,362,
292,362,
288,362,
290,362,
285,361,
288,362,
291,362,
290,364,
289,364,
286,364,
287,365,
288,365,
290,365,
287,366,
285,365,
285,365,
290,364,
289,367,
291,367,
286,369,
288,368,
287,366,
289,368,
289,370,
283,368,
284,368,
283,364,
285,368,
284,369,
282,368,
280,369,
282,368,
283,368,
282,368,
278,367,
278,365,
280,365,
281,364,
279,366,
277,365,
276,363,
278,364,
280,361,
277,364,
277,363,
277,362,
278,365,
280,364,
281,369,
276,372,
278,379,
279,385,
283,394,
284,406,
282,417,
283,432,
286,444,
292,460,
294,478,
295,497,
296,515,
303,535,
312,555,
318,576,
322,596,
327,616,
335,632,
348,648,
356,665,
364,679,
370,691,
380,701,
391,709,
399,718,
410,724,
413,727,
423,732,
431,727,
440,731,
445,730,
450,727,
453,722,
461,717,
465,709,
465,701,
466,695,
465,683,
471,676,
472,667,
471,659,
467,652,
465,642,
466,632,
464,623,
463,616,
456,609,
451,601,
449,593,
447,586,
443,582,
435,576,
431,569,
427,562,
428,557,
423,553,
415,548,
409,544,
405,538,
405,533,
401,527,
395,522,
385,517,
381,509,
382,501,
379,498,
372,493,
366,487,
364,483,
364,477,
361,474,
356,470,
350,467,
347,465,
348,460,
344,459,
343,459,
336,456,
336,457,
335,452,
337,453,
335,456,
331,454,
330,455,
332,454,
334,455,
333,457,
329,458,
327,459,
333,457,
335,459,
334,461,
331,461,
326,460,
332,460,
335,460,
334,460,
332,458,
331,457,
335,454,
332,452,
335,453,
331,451,
331,449,
331,446,
334,443,
331,442,
329,438,
326,437,
327,434,
332,432,
329,430,
327,427,
324,425,
324,421,
327,418,
326,416,
323,415,
319,410,
321,408,
322,405,
321,404,
318,403,
313,400,
313,398,
314,394,
313,395,
310,394,
306,393,
306,391,
304,386,
307,388,
304,386,
301,385,
299,384,
302,383,
301,382,
296,381,
295,382,
289,378,
295,379,
295,379,
294,378,
290,379,
290,379,
291,378,
292,378,
291,379,
287,379,
282,379,
287,378,
287,379,
290,380,
285,378,
284,379,
285,378,
288,380,
287,381,
284,378,
281,381,
282,381,
286,382,
284,382,
281,384,
279,383,
278,385,
281,383,
279,383,
279,385,
273,383,
272,386,
280,382,
279,383,
278,386,
277,386,
277,386,
283,385,
282,387,
280,387,
279,386,
278,387,
277,384,
282,387,
281,388,
277,387,
275,387,
281,387,
281,387,
279,387,
276,387,
276,386,
279,386,
282,387,
275,387,
275,386,
273,387,
276,385,
279,387,
275,387,
274,386,
274,387,
274,385,
277,385,
277,385,
273,384,
275,385,
274,385,
279,385,
277,386,
275,383,
273,385,
276,384,
277,384,
275,382,
279,384,
272,383,
269,382,
276,382,
277,385,
275,387,
273,387,
278,390,
279,392,
279,398,
278,406,
276,412,
278,419,
281,427,
279,436,
283,447,
280,459,
286,472,
288,482,
291,497,
295,510,
296,523,
302,537,
313,549,
319,559,
325,572,
332,586,
337,594,
350,601,
361,607,
367,615,
374,621,
380,623,
391,625,
401,625,
408,625,
412,625,
416,622,
425,616,
435,614,
439,610,
440,604,
443,599,
448,591,
453,585,
456,579,
451,569,
451,566,
453,558,
455,551,
454,546,
450,541,
447,535,
446,527,
448,524,
443,521,
439,518,
433,512,
429,506,
429,502,
426,500,
417,497,
411,494,
409,493,
405,489,
404,486,
398,486,
391,482,
388,482,
384,476,
381,475,
379,474,
373,469,
370,467,
371,462,
368,463,
361,461,
358,458,
353,456,
354,454,
354,454,
351,453,
345,453,
341,451,
341,450,
341,449,
337,452,
333,450,
329,451,
329,450,
333,452,
329,453,
323,454,
323,455,
322,454,
324,455,
321,458,
315,457,
315,459,
317,459,
320,461,
317,461,
314,464,
313,463,
316,464,
318,463,
318,463,
317,464,
317,462,
317,462,
320,461,
322,459,
321,460,
321,459,
322,457,
325,456,
322,453,
326,452,
320,452,
319,450,
320,446,
319,447,
322,445,
317,443,
316,442,
318,437,
319,440,
316,438,
312,435,
310,435,
313,432,
314,431,
311,429,
307,429,
305,428,
307,426,
310,426,
307,425,
304,425,
301,424,
302,424,
305,422,
304,422,
298,422,
298,424,
299,423,
302,421,
300,422,
294,420,
294,422,
295,421,
299,422,
294,421,
294,423,
289,423,
289,422,
291,423,
290,427,
287,428,
285,428,
286,427,
288,427,
289,428,
287,430,
286,429,
284,429,
288,428,
288,428,
286,429,
285,429,
285,431,
284,429,
288,430,
286,430,
283,430,
284,431,
287,428,
287,431,
283,430,
284,432,
278,431,
286,430,
287,431,
282,431,
281,431,
280,431,
284,431,
284,430,
282,429,
280,430,
277,431,
281,429,
281,427,
282,430,
278,431,
275,427,
276,425,
280,425,
278,425,
272,422,
274,423,
274,422,
277,421,
277,421,
277,422,
273,421,
274,421,
280,420,
277,421,
277,422,
275,422,
277,422,
284,423,
280,425,
278,429,
276,432,
278,436,
281,441,
282,445,
280,453,
279,460,
281,468,
284,473,
290,483,
290,493,
288,501,
293,512,
297,518,
303,529,
306,540,
311,549,
313,555,
325,560,
334,567,
338,573,
344,579,
349,582,
360,583,
368,585,
373,588,
375,588,
379,587,
390,586,
398,583,
401,580,
407,577,
407,574,
415,568,
421,564,
424,560,
422,554,
425,550,
427,543,
429,538,
429,533,
428,528,
421,524,
425,519,
425,513,
425,510,
420,507,
415,503,
414,499,
415,495,
406,494,
405,491,
398,489,
396,485,
398,482,
390,481,
386,480,
376,478,
376,476,
373,472,
370,471,
365,471,
358,469,
356,468,
353,462,
352,463,
345,462,
341,462,
335,460,
338,460,
335,456,
332,459,
328,460,
322,459,
329,458,
326,460,
322,460,
320,463,
317,464,
322,463,
318,464,
316,467,
312,468,
311,470,
313,470,
317,471,
312,473,
310,473,
310,475,
313,474,
315,476,
315,476,
316,478,
310,478,
313,477,
316,477,
316,479,
316,480,
314,480,
314,478,
320,478,
321,478,
320,477,
317,475,
319,476,
323,473,
323,473,
320,475,
321,473,
322,470,
324,468,
326,469,
323,467,
322,466,
322,467,
321,462,
325,465,
323,465,
320,462,
317,461,
322,460,
320,460,
316,458,
316,458,
313,455,
318,454,
315,455,
311,454,
309,452,
305,453,
307,450,
307,450,
303,450,
300,450,
299,450,
298,448,
301,448,
296,449,
290,448,
289,449,
289,446,
291,447,
288,449,
287,449,
286,450,
288,449,
289,448,
288,452,
286,452,
284,452,
284,452,
287,451,
283,449,
284,453,
280,453,
283,453,
287,453,
288,454,
282,453,
282,456,
283,454,
284,453,
284,452,
284,455,
279,454,
282,455,
282,451,
281,454,
285,454,
281,453,
281,452,
285,454,
287,453,
283,453,
285,453,
284,452,
286,450,
283,450,
286,450,
284,450,
285,451,
286,451,
288,451,
286,452,
285,452,
282,453,
284,454,
289,453,
286,456,
284,458,
282,461,
284,464,
287,468,
286,474,
283,479,
281,487,
283,495,
288,500,
289,511,
291,518,
291,528,
298,535,
301,542,
303,552,
308,560,
309,568,
318,574,
327,578,
335,584,
341,589,
346,591,
356,595,
363,594,
373,597,
377,597,
382,597,
391,597,
397,590,
408,589,
413,587,
416,585,
417,579,
427,575,
432,570,
437,568,
436,563,
436,557,
439,550,
440,546,
444,544,
441,540,
439,536,
440,531,
441,528,
437,525,
433,521,
429,517,
427,513,
427,512,
423,510,
415,507,
412,507,
410,504,
410,503,
405,503,
400,500,
395,502,
390,497,
391,495,
387,496,
384,494,
377,493,
374,489,
375,487,
369,487,
366,486,
360,485,
359,483,
357,480,
354,481,
350,479,
344,479,
342,477,
342,476,
342,479,
337,481,
329,481,
327,482,
325,479,
329,481,
327,484,
321,485,
319,486,
321,486,
320,488,
319,491,
316,490,
314,490,
316,490,
318,491,
318,494,
316,495,
313,496,
317,495,
319,495,
320,496,
316,496,
316,495,
318,495,
321,494,
321,496,
322,495,
320,494,
325,492,
327,491,
324,490,
322,487,
316,488,
324,487,
326,484,
322,483,
322,483,
317,482,
319,479,
322,478,
322,478,
318,477,
315,475,
317,473,
318,471,
317,470,
315,470,
312,471,
313,471,
312,468,
313,469,
312,469,
305,469,
306,469,
303,464,
304,467,
304,467,
301,465,
299,464,
302,465,
301,466,
303,465,
301,467,
297,465,
302,465,
300,463,
299,464,
296,465,
293,464,
296,463,
296,464,
294,465,
293,467,
289,465,
290,464,
294,466,
289,467,
287,466,
287,468,
287,465,
289,467,
288,467,
284,465,
283,468,
284,467,
288,469,
288,469,
287,470,
283,471,
283,468,
287,468,
285,470,
285,469,
282,470,
283,468,
288,468,
289,468,
287,468,
285,467,
286,468,
288,467,
287,466,
287,466,
282,465,
285,464,
283,461,
287,463,
285,464,
283,465,
283,465,
285,465,
286,468,
284,469,
285,471,
284,473,
287,478,
289,482,
289,489,
287,495,
289,502,
293,507,
299,518,
299,527,
301,537,
304,547,
311,557,
318,566,
324,573,
324,583,
331,592,
337,598,
346,605,
355,613,
359,616,
365,623,
377,626,
388,628,
395,632,
400,634,
406,633,
414,633,
425,632,
430,632,
434,631,
435,626,
439,626,
448,620,
448,618,
450,615,
450,612,
452,607,
456,601,
458,599,
456,597,
452,591,
448,588,
449,582,
451,582,
447,579,
445,576,
441,573,
440,570,
437,568,
433,569,
426,567,
421,566,
421,562,
418,562,
411,562,
410,563,
406,559,
407,559,
406,557,
402,555,
397,554,
392,552,
392,549,
393,546,
389,545,
380,542,
375,540,
376,536,
376,534,
373,530,
364,528,
363,528,
360,526,
364,525,
358,523,
354,522,
349,521,
347,520,
352,520,
346,521,
342,521,
338,522,
337,520,
339,520,
336,522,
334,523,
332,523,
331,523,
331,521,
330,523,
330,523,
327,523,
327,524,
327,522,
329,526,
327,527,
324,527,
325,527,
327,526,
327,528,
326,529,
324,529,
322,527,
326,525,
327,525,
324,523,
323,523,
322,520,
327,519,
327,519,
325,518,
328,516,
323,515,
326,511,
330,510,
327,509,
324,506,
324,505,
324,501,
326,498,
324,499,
318,495,
314,494,
319,491,
320,492,
317,492,
315,489,
312,487,
312,484,
313,482,
312,483,
310,483,
307,481,
310,481,
310,479,
309,481,
305,479,
303,479,
304,479,
307,477,
304,478,
300,479,
298,478,
298,479,
297,477,
298,478,
296,480,
292,478,
292,481,
297,478,
294,481,
294,482,
294,482,
290,480,
293,479,
293,479,
291,479,
292,479,
287,480,
289,479,
293,480,
288,479,
287,480,
284,480,
288,479,
288,478,
288,479,
285,479,
283,479,
285,477,
289,475,
287,480,
282,477,
282,479,
286,478,
290,477,
285,477,
285,477,
282,478,
282,476,
285,476,
285,477,
282,477,
280,477,
280,475,
287,473,
283,475,
282,473,
281,473,
280,472,
285,470,
286,471,
284,470,
282,472,
284,472,
284,471,
286,475,
287,478,
282,479,
284,484,
287,485,
290,495,
286,503,
287,511,
289,521,
295,528,
300,540,
304,553,
302,565,
306,576,
319,590,
321,604,
331,618,
334,632,
340,644,
350,655,
360,667,
366,677,
372,688,
379,697,
388,704,
399,711,
406,715,
409,719,
418,726,
425,727,
433,730,
440,732,
442,733,
444,732,
451,730,
457,728,
460,728,
460,726,
458,724,
458,720,
462,719,
458,716,
458,713,
455,711,
453,708,
455,705,
452,704,
450,702,
446,698,
445,696,
445,692,
443,693,
441,692,
432,689,
433,690,
430,684,
433,686,
427,685,
422,685,
418,683,
421,681,
417,680,
413,678,
411,674,
404,674,
404,671,
400,668,
397,666,
392,661,
389,656,
391,653,
388,646,
385,645,
378,638,
374,635,
372,630,
372,627,
370,623,
361,617,
360,615,
359,611,
358,607,
357,606,
355,604,
350,603,
347,599,
349,598,
347,598,
342,597,
341,598,
339,596,
340,597,
338,597,
339,597,
333,598,
335,597,
337,595,
337,595,
336,595,
332,596,
331,594,
337,590,
338,591,
335,590,
334,589,
332,587,
335,581,
338,583,
335,583,
335,581,
331,578,
335,573,
335,572,
333,569,
331,567,
329,563,
333,559,
334,555,
332,553,
330,549,
327,546,
326,542,
326,538,
324,536,
319,533,
316,529,
318,526,
319,523,
318,521,
311,516,
310,515,
312,511,
315,510,
314,508,
310,507,
308,504,
309,505,
307,501,
309,500,
304,500,
303,500,
303,497,
306,495,
305,493,
303,494,
299,491,
301,492,
303,491,
299,490,
301,490,
298,490,
299,489,
300,487,
301,488,
299,486,
294,488,
294,488,
296,483,
297,484,
294,484,
293,484,
289,483,
295,483,
293,482,
294,483,
288,482,
288,481,
291,481,
292,479,
291,478,
289,479,
287,478,
289,477,
293,477,
290,477,
288,477,
287,476,
289,475,
293,475,
291,475,
287,474,
289,475,
290,474,
294,473,
291,475,
291,474,
287,474,
290,473,
292,472,
291,474,
292,474,
287,472,
288,470,
286,469,
285,470,
286,470,
282,469,
285,468,
291,467,
287,465,
287,465,
285,463,
287,462,
288,460,
291,461,
287,461,
285,459,
286,458,
286,452,
288,455,
285,454,
282,454,
281,452,
286,450,
287,450,
284,449,
282,450,
277,448,
283,450,
285,450,
284,451,
282,454,
279,456,
283,460,
285,466,
285,473,
284,483,
281,492,
281,505,
286,518,
289,535,
286,550,
289,570,
295,589,
299,606,
305,627,
310,647,
309,668,
320,689,
331,707,
336,728,
344,749,
347,766,
359,782,
372,795,
380,810,
385,823,
391,833,
401,842,
411,846,
419,852,
424,857,
429,862,
437,862,
445,860,
451,860,
452,860,
455,858,
461,856,
464,847,
467,845,
469,840,
469,834,
468,826,
470,821,
470,814,
467,811,
466,807,
461,802,
463,798,
458,794,
453,790,
448,786,
441,783,
443,778,
442,774,
438,770,
432,768,
426,764,
424,761,
422,758,
418,754,
411,750,
408,747,
406,740,
406,735,
402,731,
396,721,
391,717,
392,710,
388,701,
385,694,
380,686,
375,678,
370,670,
373,661,
371,653,
366,647,
361,640,
361,634,
362,627,
358,623,
356,619,
350,615,
347,611,
348,606,
348,604,
344,601,
339,600,
339,598,
337,594,
340,596,
339,595,
336,594,
336,592,
339,589,
338,589,
338,588,
335,587,
332,587,
338,585,
340,585,
340,583,
339,583,
337,583,
339,582,
342,577,
339,577,
336,575,
334,573,
336,569,
339,568,
337,565,
335,563,
332,560,
333,556,
335,552,
334,548,
331,542,
329,539,
330,532,
332,530,
331,524,
329,519,
324,513,
323,508,
325,502,
325,497,
321,495,
316,490,
318,484,
318,479,
316,476,
313,473,
311,470,
310,466,
310,461,
310,461,
307,457,
306,455,
304,453,
303,448,
305,446,
301,444,
299,443,
298,442,
302,439,
300,436,
297,436,
298,437,
295,434,
297,433,
297,432,
297,432,
294,430,
294,430,
295,430,
297,429,
296,429,
292,429,
291,429,
295,427,
298,428,
296,428,
293,427,
289,427,
297,427,
296,427,
293,426,
289,424,
288,429,
288,426,
291,425,
290,426,
289,426,
285,424,
286,425,
290,424,
287,425,
287,425,
284,422,
286,423,
290,422,
289,422,
289,421,
287,421,
286,419,
289,419,
292,420,
289,420,
287,418,
286,419,
286,416,
289,417,
287,418,
286,417,
284,419,
288,414,
289,416,
287,417,
287,417,
285,417,
288,416,
289,415,
285,417,
288,416,
285,415,
289,415,
287,415,
283,413,
284,415,
282,414,
283,413,
285,413,
283,412,
281,411,
279,412,
284,410,
286,408,
284,407,
279,404,
277,405,
282,403,
284,401,
281,402,
282,404,
278,402,
275,403,
280,403,
282,408,
279,411,
276,416,
278,421,
283,428,
280,438,
282,451,
282,464,
282,480,
288,496,
291,516,
291,538,
292,560,
298,584,
302,606,
309,632,
314,659,
318,682,
324,706,
336,725,
346,750,
352,772,
360,790,
363,806,
383,822,
388,835,
396,848,
403,858,
408,865,
418,870,
427,873,
433,877,
435,877,
438,877,
443,874,
451,870,
453,867,
453,862,
454,857,
456,847,
462,839,
459,833,
454,823,
455,815,
455,806,
460,798,
456,792,
451,783,
445,776,
444,767,
446,760,
442,753,
436,746,
430,738,
425,731,
424,723,
419,719,
411,711,
407,706,
400,699,
402,693,
394,687,
394,680,
388,673,
387,666,
384,656,
380,650,
376,641,
372,634,
371,627,
370,615,
369,609,
363,601,
360,595,
354,585,
357,577,
354,571,
348,566,
347,560,
342,554,
343,551,
338,546,
340,545,
336,542,
333,540,
335,536,
332,535,
334,533,
328,532,
328,531,
328,529,
331,530,
328,531,
321,529,
325,528,
330,531,
329,529,
327,529,
324,528,
323,527,
324,525,
328,524,
330,524,
329,523,
328,521,
325,520,
333,516,
333,514,
331,514,
325,511,
328,507,
329,502,
328,501,
326,499,
322,494,
323,488,
323,481,
324,478,
323,474,
315,468,
319,465,
317,456,
319,455,
314,450,
313,448,
312,440,
314,436,
315,433,
311,431,
309,428,
306,424,
308,420,
309,417,
307,417,
303,414,
301,411,
302,407,
304,406,
302,405,
298,406,
297,404,
295,402,
301,400,
299,402,
293,398,
292,399,
294,397,
297,396,
295,396,
294,397,
292,396,
291,395,
293,393,
289,393,
289,395,
288,394,
288,391,
291,390,
290,390,
289,391,
287,389,
288,389,
293,386,
292,389,
290,388,
288,389,
291,389,
290,386,
291,388,
288,388,
286,387,
286,389,
287,386,
291,388,
291,389,
289,391,
286,392,
289,392,
292,392,
291,393,
288,393,
286,393,
289,393,
291,392,
288,392,
287,394,
284,393,
287,391,
286,391,
290,393,
284,394,
286,392,
289,389,
292,390,
292,389,
292,389,
291,390,
293,388,
293,387,
295,388,
291,390,
290,389,
291,387,
293,386,
292,388,
290,387,
286,387,
282,384,
287,383,
286,383,
282,384,
280,384,
281,384,
283,381,
283,381,
281,382,
275,381,
278,380,
279,378,
278,379,
279,381,
274,381,
276,383,
279,382,
281,389,
279,395,
278,401,
273,407,
280,417,
282,428,
281,441,
283,456,
283,472,
290,489,
292,507,
297,526,
300,547,
304,569,
313,590,
320,612,
322,632,
331,654,
334,673,
346,690,
359,709,
366,725,
370,737,
380,752,
391,759,
401,767,
408,774,
413,778,
420,781,
429,782,
437,780,
441,781,
445,779,
447,775,
451,769,
459,762,
462,756,
461,748,
458,740,
458,729,
463,719,
463,710,
460,702,
456,693,
454,684,
455,671,
452,664,
446,656,
442,650,
439,642,
436,631,
436,627,
430,622,
425,615,
418,608,
419,602,
415,598,
410,596,
403,589,
398,581,
398,574,
395,570,
389,563,
384,556,
379,549,
379,542,
378,538,
372,531,
366,526,
364,520,
360,513,
363,508,
357,505,
355,499,
351,497,
350,491,
351,487,
348,486,
343,483,
340,482,
342,481,
341,479,
338,480,
337,480,
330,480,
334,480,
336,479,
336,480,
333,482,
330,483,
331,483,
333,484,
334,483,
330,485,
327,486,
327,487,
332,487,
331,486,
330,488,
327,485,
327,484,
327,480,
330,481,
330,482,
328,478,
327,475,
333,473,
333,469,
330,467,
328,464,
328,457,
333,454,
331,451,
330,448,
329,445,
327,441,
331,436,
327,433,
331,431,
325,428,
327,425,
327,421,
329,418,
327,416,
322,413,
320,412,
320,409,
323,408,
321,406,
315,401,
311,400,
313,399,
315,397,
314,394,
309,395,
306,394,
307,391,
309,390,
306,390,
305,389,
301,389,
303,389,
302,387,
298,388,
298,388,
297,387,
295,387,
298,385,
299,386,
296,386,
293,388,
295,388,
293,385,
296,388,
294,388,
291,387,
290,387,
295,387,
295,388,
295,390,
290,391,
288,390,
293,389,
295,388,
291,390,
291,391,
288,391,
290,391,
291,391,
287,392,
286,393,
283,392,
287,391,
288,391,
288,393,
288,392,
287,394,
287,390,
290,392,
288,392,
285,391,
284,392,
287,391,
290,390,
290,392,
287,393,
286,393,
288,393,
289,390,
289,392,
286,392,
285,392,
286,391,
290,392,
289,393,
287,393,
285,392,
286,389,
288,387,
289,388,
288,389,
285,386,
288,388,
287,385,
290,386,
288,385,
285,384,
285,385,
288,381,
288,383,
286,383,
284,384,
282,383,
285,382,
285,382,
287,383,
284,383,
284,386,
285,385,
286,387,
286,392,
282,395,
280,400,
280,407,
286,413,
283,422,
281,432,
284,443,
286,454,
291,467,
293,482,
290,494,
295,512,
301,524,
307,541,
311,557,
314,573,
320,588,
329,603,
337,612,
343,625,
349,635,
355,643,
365,649,
374,654,
382,660,
388,664,
392,667,
403,667,
412,664,
419,663,
422,660,
427,657,
434,651,
440,642,
445,637,
446,633,
447,626,
447,619,
451,607,
454,602,
452,596,
451,590,
448,582,
450,576,
450,569,
446,561,
441,555,
437,549,
438,542,
435,537,
434,535,
426,531,
422,526,
420,522,
420,520,
413,517,
406,513,
403,511,
402,505,
402,502,
398,500,
389,494,
388,493,
386,488,
387,485,
385,478,
379,479,
373,476,
372,472,
370,467,
366,467,
362,465,
356,462,
358,459,
356,456,
354,455,
349,454,
346,454,
345,453,
347,450,
345,452,
340,453,
338,454,
337,456,
335,453,
336,457,
332,459,
330,459,
328,460,
331,458,
330,458,
324,459,
327,461,
324,461,
331,462,
330,463,
329,464,
326,464,
324,463,
328,462,
329,462,
328,461,
327,460,
326,459,
329,457,
331,455,
330,456,
328,455,
326,454,
329,452,
332,449,
330,449,
324,446,
324,447,
325,443,
326,441,
320,440,
322,439,
316,438,
317,435,
320,433,
315,432,
315,431,
312,429,
307,426,
312,422,
309,424,
309,423,
306,422,
308,421,
308,418,
306,419,
304,419,
299,418,
300,417,
301,415,
301,416,
299,416,
298,416,
296,416,
295,411,
298,414,
297,413,
297,413,
295,411,
297,410,
299,410,
295,411,
294,411,
292,411,
295,410,
296,410,
293,410,
292,413,
289,412,
290,411,
294,411,
291,411,
288,412,
288,413,
288,410,
292,411,
290,412,
287,414,
287,415,
288,414,
291,414,
293,416,
289,416,
287,416,
289,415,
295,415,
292,417,
289,419,
287,419,
286,419,
290,419,
291,418,
288,421,
286,422,
289,421,
291,420,
291,420,
288,420,
286,421,
285,419,
286,418,
287,420,
284,421,
281,419,
282,421,
283,416,
286,419,
285,419,
282,419,
280,419,
284,416,
286,418,
284,420,
281,420,
278,418,
284,417,
286,418,
284,419,
283,421,
281,422,
284,422,
287,425,
285,428,
285,434,
283,439,
286,444,
292,453,
292,460,
289,469,
292,479,
296,487,
302,497,
305,507,
307,516,
310,524,
320,537,
326,544,
331,553,
335,562,
342,569,
349,572,
360,579,
367,585,
373,588,
379,590,
387,591,
397,591,
403,590,
409,589,
412,587,
418,585,
425,581,
431,578,
433,575,
434,570,
438,566,
439,556,
443,553,
443,549,
440,544,
438,537,
445,532,
438,528,
439,522,
435,516,
433,512,
431,506,
430,503,
427,502,
419,496,
415,492,
414,487,
412,485,
404,483,
400,480,
395,479,
395,477,
392,471,
387,470,
379,468,
375,467,
376,463,
373,461,
368,459,
365,456,
359,457,
355,455,
358,454,
354,454,
347,455,
343,454,
341,453,
341,453,
338,452,
333,456,
327,454,
328,454,
329,454,
327,456,
322,458,
321,459,
320,460,
321,459,
322,461,
320,462,
316,464,
320,465,
318,462,
321,465,
322,466,
322,469,
316,468,
324,468,
325,470,
324,471,
326,474,
322,471,
327,472,
329,473,
330,472,
330,472,
330,471,
335,471,
336,470,
336,471,
334,470,
331,468,
332,467,
334,466,
334,466,
329,464,
330,464,
330,463,
332,460,
330,460,
326,454,
324,455,
324,453,
328,453,
324,450,
323,449,
319,447,
317,444,
318,442,
317,442,
314,442,
310,442,
311,441,
313,438,
310,439,
306,437,
302,437,
303,437,
304,434,
304,435,
302,436,
299,435,
299,436,
300,433,
304,435,
301,435,
299,435,
297,437,
301,436,
302,436,
299,438,
298,440,
295,439,
296,438,
300,440,
294,442,
294,443,
294,444,
297,444,
297,446,
295,448,
294,448,
292,446,
293,446,
295,447,
295,449,
290,448,
291,449,
292,446,
294,448,
293,449,
287,447,
288,449,
291,448,
293,446,
291,447,
291,446,
289,445,
290,443,
292,442,
292,443,
290,443,
286,442,
286,440,
293,440,
293,440,
291,440,
290,441,
289,441,
293,440,
290,442,
290,442,
284,443,
287,446,
286,447,
290,451,
290,455,
287,459,
287,464,
293,466,
295,473,
294,481,
295,488,
295,495,
302,503,
304,510,
307,517,
310,526,
311,532,
321,540,
327,546,
334,552,
340,559,
346,563,
357,568,
364,572,
369,574,
378,577,
384,580,
398,577,
407,577,
415,577,
414,572,
423,572,
435,568,
439,564,
443,563,
446,559,
444,555,
451,550,
456,545,
459,541,
457,538,
456,534,
454,528,
456,522,
454,520,
450,516,
447,514,
443,510,
443,506,
440,505,
435,503,
430,501,
428,498,
423,494,
422,493,
417,492,
409,488,
406,489,
403,484,
400,485,
395,484,
388,485,
383,483,
387,481,
379,479,
375,477,
369,477,
364,475,
364,473,
363,473,
359,472,
356,471,
352,471,
350,469,
350,468,
344,470,
342,468,
338,468,
340,467,
339,467,
338,469,
332,468,
331,470,
332,471,
334,472,
330,474,
332,475,
327,476,
329,476,
335,478,
333,478,
332,480,
331,481,
329,481,
334,480,
329,482,
331,484,
328,483,
331,484,
333,482,
333,483,
334,484,
329,483,
332,482,
337,479,
333,480,
335,480,
330,480,
332,479,
331,474,
333,476,
333,477,
333,477,
332,473,
335,472,
335,471,
333,473,
329,471,
327,469,
329,468,
329,467,
326,466,
322,467,
321,467,
322,466,
323,466,
320,466,
318,464,
315,464,
317,462,
318,462,
317,463,
312,461,
311,463,
310,461,
312,461,
311,463,
306,461,
304,463,
304,461,
308,462,
307,462,
306,462,
302,463,
299,462,
306,462,
304,462,
303,463,
301,463,
301,464,
303,462,
301,462,
301,463,
296,463,
295,464,
299,462,
299,463,
296,464,
293,463,
292,463,
293,459,
294,463,
294,462,
292,461,
291,461,
295,460,
295,461,
295,461,
292,461,
292,461,
294,461,
296,460,
293,461,
292,459,
290,456,
291,458,
293,456,
294,458,
289,457,
287,456,
288,456,
291,457,
290,458,
283,457,
285,460,
286,459,
291,463,
288,467,
288,470,
286,476,
288,481,
295,486,
296,493,
296,500,
298,508,
301,514,
309,521,
310,529,
316,537,
319,546,
326,552,
334,559,
342,566,
349,573,
353,579,
362,583,
372,584,
380,590,
391,594,
393,594,
402,597,
408,594,
419,596,
421,595,
429,594,
433,591,
441,587,
446,585,
450,582,
452,578,
452,573,
458,568,
461,564,
464,562,
463,556,
464,552,
467,548,
468,544,
465,542,
464,538,
458,535,
459,531,
461,529,
455,526,
450,526,
447,523,
444,521,
444,518,
439,519,
430,515,
427,517,
426,516,
424,515,
420,515,
418,514,
412,512,
411,509,
409,506,
406,507,
401,506,
393,504,
392,502,
393,498,
388,498,
387,496,
380,495,
374,493,
376,489,
371,489,
370,490,
363,488,
360,488,
358,486,
358,487,
355,489,
349,487,
349,487,
350,486,
349,488,
347,489,
345,489,
341,490,
344,489,
345,491,
342,492,
340,493,
338,493,
341,493,
341,493,
341,496,
338,494,
335,495,
336,496,
340,495,
340,497,
336,496,
335,496,
336,496,
340,497,
339,497,
334,494,
337,496,
337,492,
341,494,
340,492,
339,492,
337,492,
336,491,
340,489,
340,489,
338,488,
335,487,
336,486,
337,482,
337,484,
334,482,
332,482,
331,480,
332,478,
332,478,
333,478,
326,479,
326,478,
324,475,
327,476,
322,476,
320,475,
316,475,
319,471,
318,472,
315,474,
311,473,
305,473,
311,473,
309,472,
309,471,
303,471,
303,471,
303,470,
303,471,
300,471,
299,470,
296,470,
297,470,
298,470,
297,470,
294,469,
293,470,
294,467,
295,468,
295,469,
289,468,
291,470,
293,470,
295,468,
294,468,
295,471,
290,469,
291,469,
295,470,
291,470,
292,472,
291,473,
291,471,
296,472,
294,474,
292,474,
289,475,
292,475,
295,472,
294,474,
294,474,
290,474,
290,475,
292,473,
294,474,
292,475,
290,474,
291,476,
291,471,
294,474,
293,474,
290,475,
289,474,
293,474,
295,474,
293,475,
292,476,
291,476,
294,477,
298,479,
296,483,
293,485,
290,488,
300,491,
297,496,
299,502,
297,508,
300,515,
304,520,
311,528,
311,538,
316,544,
320,555,
326,561,
336,569,
340,578,
346,587,
351,594,
363,600,
374,605,
383,611,
389,616,
395,620,
406,623,
418,624,
425,627,
430,628,
435,627,
443,626,
452,622,
458,621,
462,619,
463,617,
467,612,
471,609,
475,607,
477,605,
473,600,
475,598,
476,591,
476,590,
477,589,
475,587,
474,584,
474,580,
474,577,
470,577,
465,575,
461,573,
461,573,
458,570,
454,568,
449,568,
445,565,
445,564,
442,560,
438,562,
437,562,
428,561,
428,558,
428,558,
423,557,
417,556,
416,556,
413,552,
417,550,
412,548,
405,545,
400,545,
399,540,
400,538,
395,538,
391,536,
386,535,
384,532,
384,529,
381,528,
377,527,
372,525,
371,526,
373,523,
370,524,
364,523,
361,524,
360,524,
360,522,
358,524,
356,527,
352,528,
351,527,
349,525,
353,528,
349,529,
347,529,
344,531,
349,529,
349,529,
348,528,
346,531,
342,528,
346,527,
347,527,
347,526,
343,526,
338,524,
347,523,
347,522,
344,520,
339,519,
338,519,
338,516,
338,515,
341,515,
335,512,
335,512,
335,509,
334,509,
336,509,
332,506,
329,507,
332,505,
335,504,
332,502,
333,501,
327,501,
326,497,
331,496,
332,495,
329,495,
325,495,
324,494,
327,489,
326,490,
323,489,
320,488,
318,487,
320,484,
319,483,
318,485,
311,485,
313,486,
311,481,
314,483,
310,484,
307,484,
304,484,
307,484,
307,484,
304,484,
299,486,
299,485,
300,483,
301,486,
300,486,
296,485,
295,486,
298,485,
300,485,
298,486,
293,485,
292,485,
293,483,
298,484,
295,485,
291,482,
290,485,
292,483,
293,483,
292,484,
286,479,
286,482,
292,481,
293,479,
291,479,
290,480,
288,480,
285,478,
293,477,
295,478,
294,479,
292,478,
292,476,
295,476,
295,477,
293,478,
291,477,
292,477,
295,476,
297,478,
294,478,
291,477,
294,478,
293,476,
296,476,
295,477,
291,475,
293,477,
297,472,
295,475,
293,473,
294,474,
293,472,
297,470,
297,470,
294,469,
290,470,
288,470,
290,469,
288,469,
289,472,
288,473,
286,473,
289,476,
290,479,
287,481,
286,486,
285,491,
287,495,
292,504,
292,512,
289,518,
293,530,
297,540,
307,549,
313,562,
314,573,
316,584,
325,594,
335,604,
342,618,
348,629,
352,640,
363,648,
375,655,
384,665,
390,672,
397,678,
403,683,
418,684,
425,689,
431,690,
435,692,
444,692,
449,690,
457,690,
460,689,
462,688,
466,686,
470,680,
475,679,
475,678,
475,675,
474,672,
478,668,
477,666,
475,664,
471,662,
468,659,
470,657,
469,655,
466,653,
462,652,
457,652,
454,652,
458,649,
452,648,
444,648,
440,647,
438,645,
438,645,
431,643,
425,641,
420,641,
418,640,
418,638,
414,636,
410,634,
404,631,
402,627,
401,623,
397,620,
393,616,
387,612,
384,608,
384,603,
377,599,
376,596,
371,594,
369,591,
368,586,
362,585,
360,582,
354,581,
356,578,
356,574,
356,574,
354,574,
350,572,
348,573,
349,568,
350,570,
349,571,
346,572,
343,574,
346,573,
345,572,
344,573,
340,574,
339,574,
342,572,
345,575,
342,575,
341,574,
338,574,
341,572,
341,571,
342,572,
337,570,
338,568,
340,568,
345,566,
342,566,
340,563,
338,562,
340,559,
341,556,
339,555,
336,552,
332,550,
332,546,
334,544,
334,543,
331,539,
327,538,
328,534,
330,532,
325,528,
325,528,
321,524,
323,522,
323,517,
322,514,
320,512,
315,511,
315,509,
316,506,
316,505,
315,505,
313,503,
312,501,
311,496,
313,496,
311,495,
309,494,
306,495,
310,491,
310,490,
306,490,
304,491,
301,489,
303,486,
303,487,
298,486,
295,486,
296,485,
296,482,
297,482,
298,483,
295,482,
291,481,
293,480,
295,480,
293,480,
290,477,
289,478,
287,477,
293,478,
292,477,
289,475,
289,478,
290,476,
294,476,
294,477,
292,477,
289,478,
291,476,
295,475,
292,476,
293,477,
290,477,
291,475,
292,473,
290,473,
291,473,
289,473,
290,474,
295,472,
294,473,
288,472,
288,472,
290,471,
288,468,
291,470,
290,468,
287,469,
285,466,
286,467,
289,468,
286,466,
285,468,
281,466,
286,466,
288,465,
287,467,
284,465,
279,465,
286,463,
289,464,
285,463,
284,463,
280,462,
287,461,
289,462,
286,461,
282,460,
282,460,
283,458,
287,459,
284,458,
279,455,
279,456,
280,455,
282,455,
281,454,
278,456,
276,454,
277,453,
278,453,
279,455,
277,455,
275,455,
280,455,
281,454,
282,457,
279,459,
278,465,
281,467,
284,472,
286,481,
286,490,
284,500,
288,512,
288,523,
297,540,
297,555,
301,571,
303,590,
312,603,
316,623,
323,643,
326,662,
332,678,
345,694,
350,710,
359,725,
369,740,
374,750,
385,763,
393,775,
405,784,
410,791,
415,795,
425,799,
432,801,
439,804,
441,803,
446,803,
448,799,
460,796,
458,795,
455,789,
459,787,
461,780,
463,775,
459,772,
458,765,
456,759,
455,752,
457,746,
453,741,
450,736,
445,730,
444,726,
446,720,
438,716,
433,713,
428,709,
425,704,
423,699,
420,697,
416,694,
409,691,
406,688,
404,683,
404,682,
400,679,
395,675,
393,672,
391,665,
390,662,
386,657,
382,652,
380,646,
380,638,
375,632,
375,629,
370,623,
363,618,
366,612,
365,606,
361,603,
356,599,
352,595,
355,591,
354,587,
352,586,
346,583,
345,583,
346,578,
346,578,
346,579,
340,576,
341,580,
341,577,
343,578,
343,580,
339,579,
333,579,
336,579,
341,579,
343,581,
339,582,
336,580,
334,579,
339,577,
339,576,
336,574,
332,572,
333,571,
335,569,
336,568,
332,565,
329,564,
330,563,
331,557,
333,554,
330,552,
325,547,
321,543,
324,536,
324,535,
322,533,
318,528,
315,525,
317,519,
316,515,
314,511,
309,508,
306,503,
308,498,
307,496,
305,493,
302,490,
298,487,
300,483,
302,481,
298,480,
297,479,
292,475,
292,471,
294,470,
292,467,
289,465,
288,463,
290,462,
292,459,
291,458,
287,456,
281,455,
284,453,
288,453,
285,452,
283,453,
280,452,
280,451,
280,450,
278,451,
278,450,
274,447,
276,448,
277,447,
277,448,
275,447,
272,447,
274,446,
274,444,
275,445,
274,445,
273,445,
272,443,
272,439,
273,440,
272,441,
272,440,
271,439,
273,435,
272,437,
272,437,
268,437,
268,435,
270,435,
272,436,
270,437,
270,436,
270,434,
270,433,
270,433,
270,435,
270,436,
268,435,
267,433,
271,434,
269,435,
267,436,
269,435,
270,432,
271,432,
269,433,
270,433,
270,433,
270,432,
273,432,
274,433,
272,435,
268,435,
272,432,
274,432,
274,433,
272,434,
270,432,
272,430,
274,429,
272,431,
272,431,
271,431,
272,429,
272,428,
272,428,
271,430,
269,428,
270,426,
268,423,
269,425,
269,426,
267,424,
265,423,
265,422,
267,424,
265,425,
264,428,
261,427,
265,431,
267,434,
266,441,
264,449,
263,460,
267,469,
269,482,
270,496,
271,511,
272,527,
279,546,
283,565,
289,587,
291,608,
297,630,
305,649,
315,671,
325,693,
326,711,
335,731,
345,746,
354,762,
365,777,
372,789,
379,799,
390,808,
400,814,
407,823,
412,826,
415,827,
423,826,
430,824,
435,822,
437,817,
437,814,
440,807,
444,799,
441,791,
444,784,
441,777,
443,766,
445,755,
444,747,
439,739,
435,729,
437,721,
436,710,
436,701,
431,696,
429,690,
422,681,
421,672,
417,666,
412,661,
406,656,
399,649,
398,642,
394,636,
388,631,
381,627,
378,622,
377,614,
376,608,
370,603,
361,596,
359,591,
357,584,
357,580,
352,574,
344,567,
339,562,
341,555,
341,551,
339,546,
334,543,
330,539,
332,537,
332,533,
331,532,
328,533,
324,531,
326,530,
327,528,
327,530,
326,530,
325,531,
325,531,
326,531,
329,533,
328,536,
324,537,
329,538,
333,537,
332,538,
327,540,
329,540,
329,540,
329,537,
334,540,
334,541,
330,539,
330,537,
335,536,
337,535,
336,533,
334,531,
335,528,
336,526,
338,521,
331,518,
335,515,
328,512,
330,509,
330,505,
328,503,
327,500,
323,495,
323,491,
324,487,
324,485,
319,480,
319,477,
318,471,
320,467,
318,463,
315,460,
310,457,
311,451,
314,447,
312,443,
311,442,
308,439,
308,435,
311,433,
306,428,
307,429,
303,427,
304,426,
308,424,
307,424,
304,423,
300,420,
299,419,
303,416,
303,416,
300,416,
298,415,
298,416,
296,412,
299,413,
298,414,
296,413,
295,413,
296,411,
297,411,
295,413,
293,414,
290,412,
293,412,
295,412,
293,412,
290,414,
288,412,
292,413,
291,412,
291,413,
286,413,
284,414,
285,413,
287,413,
287,414,
282,414,
282,415,
282,414,
284,414,
285,415,
283,412,
282,414,
283,412,
285,412,
286,413,
287,412,
286,412,
286,411,
289,409,
291,409,
287,410,
286,410,
285,408,
290,407,
289,406,
287,407,
287,408,
286,406,
287,404,
289,402,
284,403,
284,402,
284,402,
282,397,
283,400,
286,401,
283,400,
283,399,
286,398,
285,399,
284,400,
282,400,
279,399,
282,398,
281,398,
281,404,
279,406,
277,411,
281,414,
280,419,
282,428,
281,437,
280,448,
288,457,
290,470,
292,487,
291,501,
295,519,
299,536,
307,554,
309,575,
309,593,
316,615,
325,634,
332,651,
338,671,
344,687,
348,703,
357,716,
368,728,
375,739,
380,749,
385,754,
392,760,
401,760,
409,763,
412,762,
417,760,
420,757,
428,750,
432,746,
431,737,
427,732,
432,722,
433,712,
434,703,
433,693,
432,683,
429,672,
433,658,
432,650,
426,640,
424,631,
419,620,
419,609,
418,599,
413,593,
406,586,
401,578,
400,569,
397,564,
390,559,
386,552,
380,548,
384,541,
378,537,
373,532,
367,526,
359,520,
357,512,
359,507,
353,502,
343,496,
339,494,
337,488,
340,483,
332,480,
329,476,
323,472,
325,471,
322,466,
319,465,
317,466,
313,464,
315,460,
314,462,
312,463,
309,465,
306,467,
308,469,
312,469,
310,472,
309,475,
307,477,
308,482,
310,482,
311,487,
314,490,
312,493,
315,496,
316,496,
322,501,
322,504,
323,508,
322,507,
325,510,
328,512,
325,513,
321,513,
323,510,
326,509,
326,508,
327,505,
326,503,
322,500,
327,496,
326,490,
323,487,
322,483,
325,480,
323,476,
327,471,
325,468,
318,461,
314,458,
319,452,
321,449,
318,445,
315,438,
312,436,
312,432,
314,429,
312,425,
309,424,
306,420,
304,416,
307,412,
302,409,
301,410,
299,409,
299,408,
301,406,
299,405,
294,405,
294,402,
294,400,
295,399,
296,402,
290,402,
290,402,
291,402,
290,400,
292,403,
291,403,
287,403,
284,403,
288,404,
287,404,
285,404,
283,407,
282,405,
283,405,
286,407,
283,408,
282,411,
280,409,
284,410,
287,409,
285,408,
287,410,
283,410,
285,409,
288,409,
285,409,
280,408,
279,408,
280,408,
286,408,
282,407,
278,404,
277,408,
281,408,
280,405,
282,406,
279,406,
277,406,
277,404,
281,403,
282,405,
278,403,
277,403,
277,401,
280,401,
280,401,
278,402,
275,402,
277,402,
279,401,
280,403,
280,407,
278,408,
278,413,
281,414,
281,423,
282,430,
283,439,
283,446,
286,455,
288,470,
288,484,
289,499,
291,511,
297,529,
302,543,
304,562,
307,577,
309,592,
319,607,
325,620,
330,635,
335,647,
340,657,
349,667,
359,675,
367,683,
369,688,
376,692,
385,694,
394,695,
399,696,
399,694,
407,693,
412,690,
420,685,
425,680,
426,675,
425,669,
428,660,
434,651,
435,643,
434,635,
430,625,
433,617,
436,609,
433,602,
431,595,
427,588,
428,579,
426,570,
423,562,
419,558,
411,551,
409,546,
408,538,
404,533,
400,528,
392,522,
390,518,
386,509,
386,508,
379,503,
376,500,
370,494,
368,488,
366,484,
360,479,
355,478,
351,475,
349,470,
348,466,
342,463,
339,461,
334,459,
333,456,
332,455,
329,454,
323,455,
319,455,
320,454,
319,456,
319,460,
312,461,
313,463,
313,463,
314,466,
311,467,
310,470,
305,473,
307,475,
310,477,
309,480,
308,483,
304,485,
306,486,
310,486,
310,490,
309,491,
307,492,
307,494,
311,494,
311,494,
310,495,
306,494,
307,494,
310,491,
311,490,
310,489,
305,488,
304,484,
308,480,
311,479,
311,477,
308,474,
308,471,
312,466,
312,464,
311,459,
311,457,
308,453,
315,448,
313,447,
313,447,
307,442,
306,438,
308,436,
310,434,
307,433,
305,433,
302,430,
305,429,
306,428,
301,427,
295,426,
292,422,
297,423,
295,420,
292,418,
289,417,
287,419,
288,416,
293,417,
291,417,
287,418,
284,418,
285,417,
290,417,
287,418,
283,419,
280,420,
281,421,
284,419,
283,422,
280,422,
276,423,
281,424,
280,422,
282,422,
279,425,
278,425,
277,426,
278,424,
282,426,
280,428,
279,428,
278,425,
284,424,
283,426,
280,428,
282,430,
279,429,
282,428,
285,429,
282,429,
284,430,
280,429,
280,428,
280,428,
280,427,
277,426,
275,426,
276,424,
279,424,
278,424,
275,426,
274,426,
275,423,
281,424,
281,427,
274,426,
275,432,
280,436,
282,441,
282,448,
278,456,
278,467,
277,474,
288,485,
289,498,
292,513,
292,527,
295,540,
305,554,
310,571,
313,587,
318,601,
323,617,
335,628,
342,642,
351,655,
356,664,
361,673,
376,678,
382,686,
389,692,
390,694,
399,697,
409,697,
414,696,
421,695,
422,693,
423,688,
433,684,
437,678,
440,673,
439,666,
440,659,
445,649,
447,642,
446,636,
443,629,
443,619,
444,611,
444,604,
440,596,
434,589,
432,580,
432,573,
433,566,
428,561,
420,556,
416,552,
414,547,
413,543,
409,538,
404,534,
399,531,
396,526,
397,522,
390,519,
389,515,
384,510,
383,506,
383,504,
379,498,
374,498,
369,492,
366,490,
364,486,
363,483,
358,481,
350,479,
351,477,
350,474,
348,474,
346,473,
336,472,
335,474,
337,471,
337,472,
335,475,
329,476,
329,476,
329,476,
329,479,
326,479,
323,481,
319,484,
323,483,
323,485,
320,487,
317,490,
316,490,
318,490,
318,491,
313,493,
313,493,
313,494,
315,495,
318,493,
317,493,
312,492,
315,494,
316,491,
320,491,
320,489,
319,485,
316,485,
314,482,
318,480,
320,478,
319,476,
318,475,
317,470,
320,468,
320,466,
317,465,
311,461,
317,457,
319,454,
317,452,
316,451,
312,449,
311,447,
312,444,
312,443,
309,441,
305,441,
305,440,
303,435,
305,437,
303,437,
300,435,
296,433,
300,432,
301,431,
298,431,
294,431,
292,430,
293,429,
293,428,
292,429,
287,429,
285,431,
287,428,
287,428,
283,429,
285,429,
281,427,
282,429,
284,429,
281,430,
277,430,
277,432,
279,430,
281,432,
283,434,
277,432,
278,435,
280,435,
284,434,
281,436,
282,436,
277,437,
277,436,
280,436,
275,437,
277,438,
274,436,
275,436,
281,434,
278,436,
273,435,
272,438,
271,436,
273,436,
271,436,
270,437,
265,438,
270,438,
269,436,
272,437,
272,438,
271,437,
270,437,
273,435,
272,437,
274,437,
272,440,
270,437,
274,440,
276,441,
272,447,
273,452,
273,457,
278,464,
281,473,
282,482,
283,494,
284,505,
291,516,
291,530,
294,546,
295,560,
299,576,
306,589,
316,602,
319,617,
321,628,
330,643,
340,652,
349,662,
360,673,
366,681,
373,688,
382,692,
395,695,
402,699,
410,700,
415,701,
422,699,
431,696,
439,693,
442,690,
447,686,
452,681,
459,675,
463,669,
461,660,
460,653,
463,646,
464,636,
466,631,
464,624,
460,615,
460,610,
460,600,
462,596,
456,590,
451,585,
446,579,
448,574,
444,568,
438,564,
432,563,
425,557,
425,554,
422,550,
418,548,
409,545,
405,544,
403,539,
398,536,
397,533,
391,531,
385,528,
384,522,
384,519,
377,516,
375,513,
366,510,
368,507,
368,504,
367,503,
361,497,
353,497,
355,493,
355,491,
352,490,
351,489,
342,489,
342,488,
343,487,
342,488,
338,489,
337,489,
337,488,
338,489,
335,490,
333,490,
328,492,
330,493,
332,492,
329,494,
326,496,
322,496,
323,498,
321,496,
321,498,
323,500,
321,499,
317,500,
324,498,
321,498,
323,499,
320,501,
319,497,
322,495,
323,494,
321,494,
319,493,
316,491,
320,490,
321,488,
320,486,
317,482,
317,481,
318,477,
321,475,
316,474,
316,471,
315,468,
318,466,
319,464,
318,461,
313,457,
313,457,
314,455,
316,453,
314,449,
310,450,
307,449,
307,447,
308,446,
307,445,
303,447,
299,445,
297,443,
299,442,
293,443,
293,443,
291,442,
292,442,
291,439,
287,441,
288,443,
284,441,
285,442,
284,441,
286,442,
285,442,
280,440,
279,442,
281,440,
279,443,
280,444,
278,444,
274,442,
279,443,
277,443,
278,444,
279,444,
277,443,
279,445,
280,445,
279,445,
277,446,
275,446,
279,447,
277,446,
280,448,
278,447,
277,448,
280,446,
282,446,
281,448,
276,447,
277,448,
279,447,
281,447,
280,448,
278,447,
274,444,
275,443,
281,444,
280,442,
279,445,
275,443,
276,442,
277,441,
278,443,
277,442,
276,443,
279,442,
284,440,
281,441,
279,441,
277,441,
279,440,
279,437,
282,439,
281,439,
277,440,
280,441,
279,439,
282,444,
278,448,
278,454,
277,458,
281,464,
282,473,
282,484,
282,493,
279,504,
288,515,
293,530,
295,542,
297,558,
300,573,
310,587,
317,601,
324,616,
326,630,
334,644,
345,654,
355,665,
363,676,
366,683,
376,690,
387,694,
396,699,
406,703,
411,705,
415,705,
427,705,
437,703,
445,701,
453,699,
455,693,
460,686,
469,681,
473,676,
474,670,
474,663,
477,655,
480,646,
479,640,
479,634,
475,628,
474,620,
475,611,
471,605,
472,599,
467,593,
466,588,
463,581,
461,580,
456,577,
454,573,
449,571,
447,565,
442,564,
434,560,
431,557,
425,554,
424,551,
421,549,
416,545,
408,544,
401,541,
405,537,
398,532,
396,531,
388,528,
383,524,
382,520,
379,513,
376,515,
368,509,
363,509,
363,505,
364,503,
359,503,
351,498,
350,498,
350,496,
351,495,
347,497,
344,496,
341,498,
338,496,
341,497,
336,496,
334,499,
332,499,
330,499,
332,499,
325,501,
327,502,
325,503,
325,505,
327,502,
329,506,
326,505,
322,507,
324,506,
326,504,
328,504,
327,505,
327,504,
326,504,
327,499,
330,500,
330,500,
328,498,
328,496,
329,494,
331,490,
330,490,
328,489,
327,488,
328,482,
329,480,
325,479,
321,476,
321,475,
322,471,
322,469,
318,469,
312,466,
311,464,
312,461,
311,460,
310,459,
305,456,
302,457,
305,456,
303,452,
301,452,
300,452,
296,451,
295,448,
296,446,
297,447,
297,447,
294,445,
294,445,
295,443,
296,444,
293,443,
290,444,
291,443,
293,442,
292,443,
289,444,
286,443,
287,443,
289,441,
288,445,
285,444,
281,444,
279,443,
281,442,
284,445,
284,447,
281,446,
276,445,
283,445,
283,445,
280,445,
279,446,
276,447,
279,445,
282,447,
279,447,
278,447,
277,448,
281,447,
283,448,
282,446,
281,449,
280,448,
281,447,
285,445,
282,448,
279,448,
278,448,
282,447,
285,448,
285,448,
280,445,
279,444,
279,445,
283,445,
277,446,
279,447,
277,446,
278,444,
280,444,
278,444,
276,445,
275,444,
275,443,
278,443,
278,443,
275,443,
270,441,
274,442,
276,441,
273,440,
273,441,
273,441,
269,441,
270,437,
274,438,
270,438,
265,438,
265,439,
269,435,
269,437,
269,439,
268,440,
265,437,
269,439,
270,440,
268,443,
267,448,
266,452,
269,456,
270,464,
267,472,
269,481,
269,492,
271,502,
276,514,
279,528,
279,540,
284,557,
291,572,
300,586,
305,602,
308,614,
315,631,
325,643,
336,656,
345,668,
354,680,
359,690,
375,699,
383,703,
393,710,
402,715,
409,718,
420,719,
434,719,
443,718,
449,718,
456,714,
465,710,
476,704,
480,700,
484,695,
483,689,
487,681,
493,672,
496,666,
496,659,
493,651,
496,642,
494,633,
498,627,
494,622,
488,614,
483,605,
486,599,
482,593,
477,591,
471,585,
466,580,
464,575,
460,570,
455,568,
451,566,
442,562,
445,559,
437,555,
434,556,
427,552,
421,550,
417,545,
415,543,
406,541,
402,536,
394,533,
393,528,
391,526,
386,523,
379,518,
374,515,
369,512,
367,510,
365,508,
360,506,
353,505,
352,503,
352,501,
348,501,
343,502,
338,499,
338,500,
339,500,
336,501,
334,503,
331,504,
329,504,
329,503,
330,505,
329,507,
326,508,
328,510,
326,508,
330,511,
329,513,
327,514,
326,514,
333,513,
330,514,
329,515,
328,515,
328,514,
331,511,
333,512,
335,513,
331,510,
330,509,
334,505,
336,504,
334,502,
333,500,
331,496,
331,494,
333,493,
333,492,
325,488,
326,486,
327,483,
329,480,
324,480,
319,475,
315,473,
320,472,
321,469,
320,467,
315,465,
311,462,
312,461,
314,459,
311,459,
308,458,
304,458,
305,455,
309,453,
305,453,
301,453,
298,451,
296,451,
297,448,
295,449,
293,448,
287,449,
290,448,
288,444,
287,445,
286,447,
282,446,
281,446,
284,443,
285,444,
281,448,
278,449,
276,449,
277,447,
278,448,
275,451,
274,451,
271,449,
276,448,
275,449,
274,450,
273,451,
271,450,
275,451,
277,450,
277,449,
274,449,
277,451,
278,448,
283,449,
279,449,
275,448,
277,450,
279,448,
285,448,
281,449,
280,452,
278,449,
281,450,
285,450,
281,452,
280,452,
279,452,
279,450,
284,452,
279,451,
281,451,
280,452,
281,451,
282,448,
285,449,
282,449,
280,449,
281,449,
282,448,
280,448,
284,448,
276,448,
275,448,
278,442,
278,444,
278,443,
273,443,
272,442,
276,442,
273,441,
273,442,
270,442,
269,440,
271,437,
271,437,
269,440,
267,438,
265,437,
267,436,
268,435,
268,436,
263,436,
263,434,
263,433,
269,432,
266,432,
265,431,
263,433,
270,432,
266,431,
262,432,
262,431,
262,435,
260,434,
264,437,
264,442,
262,448,
262,454,
264,460,
268,469,
267,481,
272,492,
271,507,
274,520,
280,533,
282,551,
284,568,
286,586,
291,602,
300,617,
305,635,
315,651,
317,666,
327,682,
334,691,
344,704,
355,715,
359,722,
372,731,
383,735,
389,740,
401,747,
410,749,
416,749,
431,747,
440,746,
445,745,
449,741,
458,735,
467,729,
470,720,
475,716,
482,709,
482,702,
494,694,
496,686,
497,677,
495,668,
495,661,
495,651,
495,642,
494,635,
486,625,
484,619,
483,612,
480,604,
477,598,
472,591,
463,585,
457,580,
455,575,
452,573,
444,568,
436,564,
431,560,
431,554,
423,551,
415,547,
408,542,
405,539,
400,534,
395,530,
387,528,
380,524,
378,520,
375,514,
374,512,
368,510,
363,507,
358,508,
355,502,
354,503,
350,505,
348,506,
339,503,
342,503,
342,505,
340,506,
337,506,
334,507,
335,506,
335,507,
331,511,
330,513,
327,515,
329,515,
331,516,
330,519,
327,519,
324,521,
324,520,
328,523,
326,524,
322,523,
323,526,
324,523,
329,522,
327,523,
326,523,
322,522,
325,520,
326,520,
327,517,
323,516,
320,513,
317,512,
323,508,
322,509,
320,506,
317,505,
318,499,
319,495,
321,492,
319,490,
317,487,
316,485,
317,480,
317,479,
313,477,
311,476,
309,474,
308,467,
310,466,
307,467,
304,463,
301,462,
303,459,
303,458,
299,457,
296,457,
293,455,
295,454,
293,454,
292,453,
290,453,
289,452,
292,452,
289,450,
290,452,
291,452,
283,452,
289,451,
292,449,
290,449,
286,451,
284,452,
286,451,
287,451,
288,448,
283,449,
281,451,
283,450,
285,450,
284,452,
283,452,
281,451,
282,450,
284,449,
282,450,
281,451,
279,451,
278,451,
280,450,
280,450,
277,449,
275,451,
274,451,
277,449,
277,451,
278,451,
271,449,
272,449,
273,447,
272,449,
269,449,
267,448,
267,449,
267,445,
267,446,
268,445,
265,445,
264,445,
268,442,
272,442,
268,443,
267,444,
266,441,
270,441,
272,442,
270,442,
269,442,
266,441,
270,440,
272,440,
273,442,
272,440,
270,440,
273,438,
275,441,
275,439,
271,438,
272,438,
273,437,
276,438,
274,436,
276,437,
270,437,
272,436,
275,435,
274,434,
272,435,
269,436,
270,435,
272,434,
270,434,
267,436,
263,434,
266,433,
267,431,
269,431,
265,431,
263,430,
264,432,
265,430,
267,430,
267,431,
264,430,
261,432,
266,427,
267,430,
266,431,
264,433,
261,434,
265,435,
265,438,
263,443,
261,450,
259,455,
263,465,
264,473,
266,487,
265,499,
266,513,
270,525,
275,540,
277,560,
277,578,
281,595,
288,613,
296,631,
299,649,
304,665,
311,682,
325,698,
335,713,
341,727,
348,736,
355,749,
367,758,
379,764,
387,771,
395,776,
403,778,
413,778,
424,777,
430,777,
438,776,
444,771,
449,764,
459,756,
464,749,
468,740,
470,732,
476,723,
481,711,
485,702,
485,692,
484,681,
484,670,
483,655,
485,647,
483,637,
476,626,
474,616,
477,606,
473,599,
465,591,
464,582,
456,574,
456,567,
452,560,
446,555,
437,550,
430,545,
428,539,
424,535,
416,532,
412,529,
405,523,
401,518,
400,516,
392,512,
384,510,
379,506,
376,503,
374,501,
368,502,
359,499,
357,500,
355,497,
354,497,
351,499,
347,499,
342,500,
339,500,
335,499,
335,503,
333,504,
328,505,
326,505,
329,507,
327,511,
324,512,
320,515,
320,515,
322,515,
322,518,
321,520,
317,521,
320,524,
320,522,
323,527,
323,526,
321,527,
322,529,
323,524,
326,527,
325,526,
326,526,
324,523,
327,520,
328,518,
326,517,
325,515,
324,514,
327,510,
328,507,
324,505,
325,503,
319,500,
322,498,
322,493,
319,491,
316,490,
312,485,
314,481,
314,479,
314,478,
309,475,
309,472,
308,470,
313,467,
310,464,
307,463,
303,462,
303,459,
305,456,
303,456,
301,455,
297,454,
302,452,
300,450,
298,448,
296,449,
291,448,
292,447,
295,443,
295,445,
292,446,
291,446,
291,444,
294,441,
292,443,
288,445,
286,444,
286,444,
287,440,
290,444,
287,444,
282,443,
284,443,
287,443,
287,443,
286,445,
283,447,
281,444,
283,444,
283,444,
283,446,
281,446,
279,444,
281,444,
282,445,
281,445,
281,445,
279,444,
279,443,
281,443,
282,444,
277,443,
276,444,
279,441,
280,440,
278,442,
272,441,
274,443,
271,442,
280,442,
279,443,
275,442,
271,442,
272,441,
277,441,
274,441,
272,442,
267,441,
269,441,
271,440,
270,442,
268,442,
265,440,
267,443,
269,442,
269,444,
269,443,
264,443,
267,443,
267,442,
268,441,
269,442,
267,442,
267,442,
270,438,
271,440,
267,439,
267,441,
265,440,
269,438,
270,436,
268,436,
266,437,
265,435,
269,435,
271,434,
270,435,
269,435,
266,434,
269,432,
270,431,
270,433,
266,430,
266,431,
268,429,
269,429,
267,429,
261,427,
263,429,
259,430,
265,431,
264,430,
261,432,
257,431,
259,433,
262,437,
263,442,
265,448,
257,457,
264,464,
266,473,
263,486,
265,499,
263,514,
268,530,
272,546,
276,566,
277,586,
282,607,
287,625,
295,642,
301,663,
305,681,
310,698,
317,716,
327,728,
339,746,
345,759,
352,771,
359,778,
372,785,
382,792,
387,796,
395,798,
401,796,
410,793,
418,790,
428,787,
431,780,
438,772,
444,762,
453,753,
458,744,
458,732,
461,722,
464,709,
470,696,
470,683,
466,670,
466,659,
470,645,
471,633,
471,621,
465,607,
462,599,
460,587,
462,578,
458,570,
453,561,
446,554,
443,545,
442,538,
433,533,
430,527,
423,521,
420,515,
420,510,
411,505,
408,500,
399,497,
393,492,
390,487,
382,486,
378,484,
371,482,
367,480,
363,476,
362,478,
356,478,
351,477,
345,479,
345,477,
342,479,
337,482,
334,484,
330,486,
330,488,
330,491,
327,494,
326,496,
322,497,
326,498,
324,502,
325,506,
323,508,
322,512,
324,513,
327,515,
325,517,
323,519,
323,522,
326,521,
328,524,
329,525,
322,525,
325,527,
327,526,
330,526,
330,526,
328,525,
325,521,
327,522,
331,519,
331,517,
329,515,
327,513,
327,509,
329,506,
328,505,
326,502,
325,501,
324,497,
324,494,
324,492,
323,490,
319,486,
318,485,
319,480,
320,478,
316,476,
314,473,
312,470,
312,463,
315,463,
312,462,
307,459,
305,457,
304,452,
302,451,
302,450,
299,448,
296,446,
298,444,
298,443,
295,442,
293,442,
289,440,
290,438,
291,439,
290,438,
287,439,
283,438,
284,435,
285,436,
282,437,
277,436,
273,437,
277,436,
279,436,
277,438,
275,436,
273,438,
274,438,
277,439,
276,440,
275,440,
271,439,
275,440,
278,440,
278,442,
276,442,
274,441,
276,442,
278,441,
278,440,
276,442,
275,444,
276,442,
276,441,
277,443,
274,443,
273,442,
273,442,
272,438,
272,441,
273,442,
271,441,
271,442,
274,440,
272,441,
270,441,
268,442,
266,440,
269,440,
265,439,
269,440,
265,441,
265,440,
267,438,
271,439,
270,440,
268,440,
266,440,
266,440,
269,441,
270,442,
266,439,
266,439,
269,440,
270,440,
272,441,
267,439,
266,442,
271,439,
276,440,
275,440,
279,440,
276,439,
273,437,
279,438,
280,439,
279,439,
275,440,
276,438,
277,437,
278,437,
274,439,
273,439,
273,439,
275,438,
276,438,
272,437,
269,437,
269,438,
268,435,
268,437,
267,438,
265,440,
264,444,
265,443,
264,451,
263,456,
264,465,
264,474,
267,483,
270,496,
269,510,
271,524,
272,540,
278,557,
281,577,
282,597,
283,616,
289,635,
297,654,
305,672,
309,691,
313,707,
317,723,
329,738,
341,753,
346,763,
351,772,
355,782,
369,786,
384,791,
388,795,
396,793,
401,794,
409,790,
421,788,
427,781,
431,776,
435,768,
440,757,
448,747,
452,736,
454,725,
456,714,
460,700,
466,687,
465,673,
464,662,
465,651,
464,637,
466,622,
464,612,
461,601,
456,589,
456,579,
452,564,
451,558,
445,548,
441,541,
432,534,
435,526,
433,519,
427,514,
421,509,
413,503,
412,497,
408,492,
401,489,
400,484,
390,481,
388,478,
384,475,
380,475,
377,473,
367,473,
368,471,
364,471,
361,472,
350,472,
349,474,
347,474,
345,477,
342,481,
333,482,
332,486,
327,487,
331,491,
329,495,
325,499,
323,503,
320,504,
324,507,
323,510,
321,514,
318,517,
321,519,
326,521,
326,523,
325,526,
322,527,
326,529,
329,527,
328,528,
328,528,
327,528,
325,526,
329,523,
330,520,
331,522,
328,519,
330,518,
330,513,
333,513,
331,510,
328,509,
329,503,
335,502,
333,499,
331,498,
327,497,
328,494,
333,490,
326,487,
326,485,
325,483,
323,480,
324,474,
323,473,
321,471,
319,469,
315,468,
316,463,
317,462,
314,462,
307,458,
308,458,
306,455,
308,455,
304,453,
301,451,
297,449,
298,451,
299,449,
294,449,
293,449,
290,448,
288,445,
290,446,
289,446,
287,446,
279,445,
282,445,
284,444,
283,445,
285,444,
277,444,
280,446,
282,442,
282,443,
279,444,
277,443,
279,445,
278,441,
281,444,
276,444,
276,445,
276,445,
280,445,
281,446,
277,445,
275,446,
273,446,
277,444,
278,443,
278,445,
273,445,
273,443,
275,443,
278,443,
277,444,
274,444,
273,442,
274,443,
276,444,
275,444,
273,442,
272,443,
276,441,
278,441,
279,441,
275,440,
274,441,
277,440,
281,441,
281,441,
277,442,
274,443,
277,440,
279,441,
276,440,
275,441,
273,439,
275,440,
275,440,
272,442,
274,443,
270,443,
271,441,
275,440,
276,442,
273,443,
271,441,
269,440,
273,438,
275,439,
274,440,
271,439,
272,439,
273,437,
276,439,
272,438,
271,438,
269,437,
273,437,
274,437,
271,436,
269,437,
268,438,
271,438,
268,439,
272,445,
270,452,
269,459,
269,467,
270,475,
268,488,
268,499,
268,516,
271,530,
275,550,
275,567,
274,586,
280,606,
283,626,
292,645,
299,667,
304,685,
308,703,
315,718,
327,735,
333,752,
339,764,
345,775,
353,781,
365,789,
373,796,
379,800,
385,803,
394,802,
407,799,
412,796,
417,792,
422,786,
427,778,
435,768,
442,757,
444,748,
447,737,
452,724,
453,706,
457,695,
461,684,
460,670,
456,657,
459,643,
460,631,
455,616,
453,606,
452,594,
453,582,
451,573,
441,562,
438,554,
436,544,
433,536,
427,528,
421,521,
414,516,
407,509,
406,504,
403,497,
397,493,
390,487,
386,486,
384,480,
379,477,
377,476,
369,472,
364,474,
362,471,
361,470,
356,470,
352,473,
346,473,
344,474,
348,477,
345,479,
339,482,
335,482,
332,487,
336,491,
335,494,
334,499,
328,501,
329,506,
329,507,
329,511,
331,515,
326,516,
328,519,
327,521,
329,524,
330,527,
326,528,
329,532,
333,532,
336,535,
330,533,
333,536,
328,535,
335,533,
337,533,
336,533,
334,531,
334,529,
338,526,
340,524,
339,522,
336,519,
332,514,
334,510,
333,506,
336,507,
330,503,
329,500,
330,496,
332,492,
330,491,
328,487,
326,485,
327,480,
329,479,
328,475,
325,473,
322,470,
322,467,
323,463,
323,464,
322,465,
317,461,
316,459,
317,457,
315,457,
311,456,
308,453,
307,454,
308,453,
308,453,
305,452,
301,453,
301,451,
303,450,
302,450,
300,450,
292,450,
294,451,
293,446,
294,449,
290,449,
288,450,
286,450,
290,450,
288,450,
286,450,
286,453,
284,450,
287,451,
288,451,
285,452,
282,453,
281,453,
283,452,
285,453,
283,454,
279,456,
278,456,
279,455,
283,455,
279,454,
279,455,
279,454,
280,454,
283,455,
278,456,
279,452,
279,456,
281,454,
283,454,
284,453,
282,455,
281,455,
283,452,
287,451,
286,453,
283,454,
280,455,
282,453,
282,453,
283,452,
282,453,
280,454,
280,452,
283,450,
284,452,
279,452,
280,452,
282,452,
283,450,
286,451,
284,450,
282,450,
283,451,
286,446,
283,448,
286,449,
284,450,
282,451,
286,448,
287,450,
285,455,
282,457,
280,461,
282,465,
285,472,
282,481,
281,491,
278,502,
284,516,
287,532,
288,547,
286,564,
290,583,
294,602,
302,621,
304,642,
307,660,
313,680,
320,697,
330,715,
332,732,
343,746,
344,759,
354,768,
366,779,
370,787,
377,793,
382,797,
390,798,
400,797,
405,797,
410,794,
414,789,
423,783,
430,773,
435,766,
438,756,
438,745,
444,734,
449,720,
452,709,
453,698,
451,683,
454,670,
454,654,
456,644,
453,633,
452,621,
447,610,
448,596,
445,584,
442,577,
437,568,
430,557,
430,547,
426,538,
420,532,
416,525,
408,516,
407,510,
403,505,
397,498,
391,494,
385,489,
382,484,
381,480,
376,479,
368,477,
363,476,
364,474,
363,474,
359,475,
355,474,
352,480,
350,478,
350,479,
353,484,
346,490,
343,492,
341,496,
343,500,
341,505,
338,510,
334,514,
336,518,
336,520,
335,525,
332,530,
331,535,
332,538,
333,540,
336,544,
332,549,
329,551,
330,551,
330,553,
334,554,
333,553,
330,553,
331,554,
334,548,
336,551,
336,550,
335,549,
335,547,
339,543,
339,540,
338,538,
336,535,
335,533,
338,525,
339,521,
338,518,
336,514,
333,511,
336,507,
337,504,
336,501,
333,498,
330,496,
332,492,
333,490,
331,486,
326,483,
325,482,
328,478,
328,475,
327,475,
324,473,
320,470,
323,468,
322,466,
321,464,
320,465,
320,464,
317,460,
318,459,
320,460,
316,459,
314,458,
314,455,
316,454,
313,453,
313,454,
309,453,
309,452,
313,450,
309,451,
306,450,
301,453,
305,452,
304,448,
306,451,
305,452,
302,454,
300,454,
303,455,
302,454,
299,454,
297,456,
298,457,
298,454,
299,454,
297,456,
295,456,
289,457,
295,457,
297,457,
295,459,
291,458,
289,458,
290,457,
294,457,
289,458,
286,458,
285,458,
289,456,
289,457,
288,458,
285,455,
285,457,
287,457,
290,457,
289,457,
286,458,
282,455,
281,455,
287,455,
284,456,
283,456,
281,456,
283,456,
287,455,
286,459,
286,461,
282,464,
287,471,
290,476,
291,485,
290,496,
289,507,
293,521,
296,535,
300,553,
303,573,
303,593,
305,615,
315,633,
320,658,
323,679,
330,704,
330,723,
342,743,
351,762,
356,781,
362,800,
369,811,
379,825,
388,836,
393,846,
400,853,
406,857,
416,860,
423,862,
431,861,
434,860,
440,855,
447,848,
457,843,
461,837,
460,827,
467,816,
471,805,
477,793,
478,782,
476,770,
474,756,
473,742,
479,727,
478,715,
474,703,
471,690,
469,677,
471,666,
468,655,
464,644,
460,632,
454,624,
453,613,
450,606,
446,598,
434,591,
433,583,
435,574,
428,569,
422,563,
415,556,
410,551,
404,542,
400,539,
396,534,
390,531,
385,528,
384,525,
377,522,
376,521,
370,521,
366,520,
367,518,
366,519,
360,521,
356,522,
354,526,
353,527,
355,531,
351,535,
346,538,
344,541,
347,545,
347,549,
345,553,
345,555,
342,560,
345,563,
348,565,
348,569,
345,568,
345,573,
349,573,
352,576,
354,576,
352,579,
351,577,
355,577,
356,575,
356,576,
355,574,
352,572,
349,570,
358,567,
353,564,
354,561,
351,557,
349,554,
353,548,
352,545,
354,540,
348,537,
347,532,
347,526,
348,523,
346,519,
343,513,
339,509,
342,502,
341,500,
337,496,
334,494,
331,489,
334,485,
333,483,
330,480,
329,478,
327,475,
329,472,
329,470,
324,468,
328,466,
322,464,
324,462,
326,461,
325,461,
320,458,
320,457,
320,456,
322,456,
318,456,
313,453,
312,454,
311,453,
313,453,
312,452,
308,454,
305,454,
307,455,
308,454,
307,457,
304,458,
299,459,
299,457,
303,457,
303,459,
300,459,
298,458,
301,457,
302,455,
303,458,
302,458,
297,458,
300,457,
302,456,
304,456,
301,456,
303,455,
301,456,
302,452,
306,453,
305,453,
304,455,
302,454,
306,453,
304,453,
304,451,
304,452,
297,450,
299,448,
300,448,
300,449,
297,448,
296,447,
296,446,
299,444,
299,446,
293,446,
294,447,
295,448,
296,452,
298,459,
293,467,
293,474,
297,486,
301,501,
302,517,
299,533,
302,556,
306,577,
311,600,
318,627,
321,653,
325,679,
331,705,
341,733,
348,758,
353,784,
359,807,
368,829,
379,849,
387,871,
395,887,
400,903,
412,915,
422,924,
433,935,
440,941,
448,945,
457,947,
464,945,
473,946,
480,943,
482,939,
487,931,
495,921,
500,912,
503,903,
503,894,
503,883,
508,871,
507,857,
506,846,
504,833,
501,821,
503,805,
502,795,
499,781,
492,771,
490,760,
489,748,
487,737,
483,729,
477,720,
474,712,
469,702,
466,694,
463,688,
450,681,
447,673,
444,666,
440,659,
438,653,
432,645,
427,639,
423,631,
423,625,
419,618,
413,613,
406,604,
405,599,
407,591,
403,590,
398,586,
392,582,
388,578,
389,574,
385,575,
380,575,
376,576,
371,575,
374,573,
371,575,
369,579,
364,579,
362,581,
364,579,
367,584,
365,586,
362,587,
361,589,
366,591,
366,591,
365,593,
361,593,
358,594,
362,592,
360,592,
362,592,
362,592,
360,589,
363,587,
365,584,
364,582,
362,579,
360,575,
366,572,
362,565,
364,563,
361,558,
358,554,
363,547,
365,542,
362,538,
354,530,
354,526,
354,519,
356,513,
354,508,
351,502,
347,497,
347,490,
351,485,
350,483,
348,480,
343,475,
342,470,
346,466,
344,462,
341,459,
336,456,
336,453,
337,449,
337,449,
334,447,
329,443,
328,440,
328,438,
329,439,
324,436,
320,434,
320,434,
319,430,
320,432,
319,431,
314,431,
313,430,
317,428,
318,428,
315,428,
312,426,
310,425,
313,423,
315,425,
312,424,
310,426,
308,425,
310,424,
311,424,
310,426,
306,426,
304,425,
307,425,
306,426,
305,428,
301,426,
300,428,
301,427,
303,426,
303,428,
301,426,
298,426,
300,426,
303,424,
300,424,
303,424,
299,422,
300,422,
304,420,
304,421,
302,420,
301,419,
300,417,
302,414,
301,413,
300,411,
299,413,
298,409,
301,407,
304,408,
302,409,
300,407,
300,408,
299,406,
302,412,
300,416,
297,422,
295,432,
301,443,
303,458,
300,475,
303,494,
301,513,
312,535,
312,560,
315,586,
319,615,
321,643,
330,672,
335,701,
344,730,
352,757,
356,785,
367,810,
378,833,
383,856,
392,875,
401,893,
414,908,
426,921,
432,932,
436,941,
444,947,
455,950,
464,951,
470,952,
476,950,
479,946,
487,942,
494,932,
495,925,
498,916,
496,907,
501,893,
508,882,
505,870,
505,858,
501,845,
502,832,
504,819,
503,806,
498,793,
491,782,
492,769,
490,755,
489,746,
482,737,
477,726,
474,717,
469,704,
468,696,
464,688,
458,679,
452,669,
451,661,
447,650,
442,642,
435,633,
432,625,
431,614,
425,604,
423,596,
415,588,
410,581,
407,571,
405,564,
400,557,
395,552,
391,549,
390,542,
390,538,
383,533,
381,532,
379,531,
380,527,
381,525,
377,525,
376,523,
373,525,
372,522,
374,523,
371,524,
371,527,
370,527,
371,527,
374,528,
373,529,
372,530,
369,529,
371,530,
373,529,
372,528,
371,528,
365,528,
368,525,
370,523,
372,521,
370,519,
367,515,
368,513,
367,509,
369,507,
367,503,
361,498,
362,495,
363,490,
362,484,
361,481,
357,475,
352,469,
356,461,
357,456,
354,450,
351,445,
348,440,
349,433,
347,428,
348,423,
345,417,
341,413,
342,406,
343,402,
336,400,
336,395,
333,393,
335,388,
335,384,
331,383,
326,379,
326,380,
325,376,
329,376,
327,374,
325,372,
321,370,
320,369,
322,366,
320,368,
319,367,
316,367,
317,364,
319,365,
316,363,
316,364,
313,364,
313,365,
316,363,
315,365,
311,365,
308,366,
309,366,
310,364,
310,365,
306,365,
304,366,
307,367,
305,364,
306,366,
307,367,
305,368,
302,367,
307,368,
307,369,
304,370,
305,371,
304,372,
307,371,
306,370,
305,371,
303,372,
302,371,
303,372,
305,372,
305,373,
301,374,
299,373,
302,372,
303,370,
303,372,
297,371,
296,371,
298,370,
302,368,
301,369,
297,364,
296,366,
299,364,
300,365,
300,364,
297,364,
295,361,
291,360,
298,360,
298,359,
295,360,
291,361,
292,363,
295,366,
294,370,
293,377,
293,386,
294,396,
299,408,
300,424,
299,442,
300,457,
304,479,
307,498,
314,523,
318,548,
320,574,
326,602,
335,624,
344,654,
350,680,
358,706,
366,727,
376,750,
386,767,
396,787,
402,803,
407,818,
423,829,
433,839,
441,847,
446,852,
452,857,
464,858,
473,857,
476,856,
478,853,
483,846,
494,839,
495,831,
497,824,
495,816,
496,806,
503,796,
503,783,
504,773,
499,762,
494,749,
495,736,
494,723,
491,712,
487,701,
482,692,
478,678,
477,667,
472,656,
466,649,
459,639,
457,631,
456,622,
451,616,
448,607,
437,600,
436,592,
434,582,
430,574,
425,566,
420,560,
416,552,
412,540,
411,532,
406,528,
401,519,
396,512,
396,504,
395,498,
391,494,
388,490,
383,484,
382,482,
380,479,
377,478,
372,475,
365,474,
370,472,
368,469,
365,470,
363,470,
360,471,
365,469,
363,468,
362,469,
358,469,
356,471,
357,471,
358,470,
358,472,
356,470,
357,474,
359,474,
364,474,
362,472,
361,473,
358,472,
361,469,
364,469,
364,469,
362,468,
359,465,
359,461,
362,456,
363,455,
359,452,
357,448,
357,444,
357,440,
358,437,
355,432,
352,430,
352,424,
350,416,
350,414,
349,410,
344,406,
344,401,
345,395,
345,394,
340,390,
339,387,
336,382,
339,378,
336,375,
336,372,
331,370,
328,367,
328,366,
329,363,
322,362,
326,362,
322,360,
323,359,
325,359,
321,357,
318,355,
315,353,
317,353,
319,352,
318,352,
311,350,
311,352,
313,350,
314,350,
312,350,
309,349,
306,349,
309,349,
309,348,
310,349,
306,349,
304,351,
304,347,
307,348,
308,349,
306,349,
303,349,
302,352,
305,347,
303,348,
300,349,
297,350,
299,350,
298,346,
297,348,
296,350,
293,352,
295,351,
294,348,
297,351,
293,351,
293,350,
288,353,
298,351,
295,350,
295,352,
294,353,
295,351,
299,350,
300,348,
296,348,
298,347,
298,347,
300,347,
301,346,
301,346,
299,347,
297,346,
298,346,
302,345,
300,345,
299,344,
298,345,
297,343,
301,344,
300,344,
294,343,
296,344,
296,343,
300,344,
298,345,
296,346,
292,343,
292,342,
295,342,
295,344,
293,347,
288,348,
287,350,
291,353,
289,360,
291,368,
290,375,
290,384,
294,394,
295,407,
296,422,
295,438,
300,454,
304,470,
309,489,
312,507,
315,525,
323,545,
328,558,
338,579,
347,596,
354,613,
361,625,
375,640,
384,652,
387,661,
399,671,
407,679,
420,683,
430,687,
436,690,
443,692,
450,691,
458,688,
468,684,
471,681,
478,677,
477,670,
482,663,
488,656,
490,649,
488,640,
489,634,
492,623,
493,614,
491,604,
488,596,
484,589,
480,580,
485,572,
478,567,
476,561,
469,555,
466,547,
464,541,
459,537,
452,532,
445,525,
441,520,
443,515,
439,512,
434,506,
428,501,
426,496,
425,488,
419,484,
415,480,
405,475,
405,471,
402,462,
400,460,
396,459,
389,454,
382,452,
382,447,
379,446,
373,443,
369,444,
365,439,
365,439,
366,439,
361,439,
357,439,
353,439,
354,439,
353,440,
353,441,
347,442,
345,443,
346,444,
346,444,
345,447,
341,449,
341,450,
343,449,
345,448,
345,451,
344,450,
345,452,
346,449,
351,449,
352,450,
351,449,
349,448,
348,445,
355,444,
355,444,
354,442,
353,440,
356,439,
356,433,
356,432,
353,429,
352,425,
352,422,
353,419,
353,417,
349,414,
349,412,
346,409,
347,405,
347,403,
344,401,
338,398,
338,396,
336,391,
335,390,
332,390,
329,388,
324,387,
328,384,
326,383,
323,384,
320,382,
318,380,
320,380,
322,380,
318,379,
314,379,
313,380,
316,378,
315,378,
314,378,
310,380,
308,380,
310,379,
314,378,
313,379,
307,378,
307,377,
308,377,
311,377,
309,378,
306,376,
304,378,
303,379,
307,379,
304,380,
303,380,
301,380,
299,378,
307,380,
304,382,
302,383,
299,382,
297,382,
303,383,
303,384,
300,385,
298,386,
298,385,
301,384,
300,386,
301,386,
302,387,
300,386,
300,384,
301,386,
299,388,
298,388,
297,388,
299,384,
301,386,
298,388,
297,390,
296,390,
300,388,
300,386,
299,389,
298,389,
295,388,
301,388,
301,389,
298,388,
296,389,
292,388,
298,386,
299,385,
297,386,
299,386,
293,386,
295,385,
297,384,
297,384,
290,382,
290,381,
288,380,
292,378,
290,380,
287,380,
285,380,
285,377,
288,377,
287,379,
284,380,
281,381,
279,380,
284,380,
283,383,
279,385,
278,388,
281,390,
282,397,
285,403,
283,411,
284,419,
285,424,
289,432,
293,442,
294,454,
296,463,
300,474,
303,483,
312,497,
317,508,
320,520,
326,528,
337,538,
347,549,
355,558,
361,565,
369,571,
381,575,
392,580,
399,585,
405,586,
409,587,
422,588,
426,587,
437,588,
441,586,
444,582,
450,578,
460,577,
462,570,
463,565,
465,560,
467,556,
474,550,
474,544,
468,537,
466,534,
469,528,
472,522,
470,517,
469,513,
463,509,
460,503,
460,500,
458,498,
452,496,
445,494,
442,489,
441,485,
438,483,
433,481,
426,478,
425,475,
424,473,
421,472,
413,470,
409,467,
406,466,
403,461,
400,458,
393,458,
392,456,
387,455,
383,450,
383,451,
380,450,
375,450,
370,448,
368,448,
368,448,
366,449,
360,448,
355,448,
356,447,
353,448,
352,450,
348,449,
345,449,
347,449,
344,449,
344,450,
344,451,
340,452,
340,450,
343,450,
341,453,
337,452,
337,453,
335,453,
341,452,
340,452,
339,451,
333,454,
339,452,
343,452,
344,454,
342,454,
339,454,
339,451,
343,450,
342,451,
339,450,
338,450,
340,448,
339,445,
338,444,
334,446,
330,442,
333,443,
334,442,
333,441,
331,439,
327,437,
327,436,
325,433,
326,435,
323,434,
320,432,
317,431,
321,428,
319,428,
313,428,
311,428,
309,427,
311,424,
310,426,
307,425,
304,427,
301,423,
302,423,
303,423,
301,425,
299,424,
299,425,
298,423,
299,422,
298,422,
295,424,
292,424,
295,425,
300,423,
298,423,
294,424,
294,426,
295,425,
298,425,
297,425,
294,426,
292,427,
294,426,
297,426,
295,426,
294,427,
291,427,
292,426,
297,426,
291,427,
293,428,
287,428,
292,427,
294,425,
293,426,
290,428,
285,428,
288,425,
288,426,
288,425,
286,429,
283,427,
283,428,
281,425,
284,427,
284,427,
279,427,
277,426,
283,426,
284,427,
282,426,
277,425,
278,424,
283,425,
283,427,
282,428,
279,427,
278,427,
282,426,
286,426,
282,427,
282,428,
278,428,
282,429,
286,429,
285,430,
280,428,
280,430,
282,427,
285,428,
282,428,
279,424,
280,426,
283,426,
287,425,
287,425,
284,426,
283,426,
283,424,
288,424,
288,426,
285,426,
282,426,
282,424,
282,423,
282,426,
278,427,
278,428,
279,429,
280,429,
276,433,
278,437,
275,441,
277,445,
276,448,
281,456,
279,463,
280,470,
282,479,
286,483,
290,494,
291,502,
294,513,
296,521,
303,530,
311,535,
311,543,
320,551,
326,558,
336,562,
347,567,
353,571,
359,574,
367,576,
378,577,
390,578,
396,576,
401,577,
409,576,
419,572,
428,570,
433,568,
434,563,
439,560,
444,555,
452,550,
454,546,
454,541,
454,537,
456,531,
460,526,
461,521,
457,519,
453,514,
451,509,
452,506,
449,502,
442,499,
436,496,
436,493,
434,490,
431,486,
425,485,
421,487,
418,483,
414,481,
412,482,
409,481,
399,479,
395,479,
394,474,
395,476,
390,475,
384,473,
380,474,
380,470,
378,471,
372,470,
368,471,
365,468,
365,467,
359,467,
360,469,
357,469,
351,468,
349,468,
350,469,
346,469,
343,470,
339,469,
339,471,
340,471,
338,472,
335,474,
334,476,
335,475,
337,476,
336,478,
331,478,
332,480,
336,482,
337,481,
334,483,
335,482,
332,483,
330,486,
336,484,
336,484,
333,483,
332,482,
333,482,
336,481,
336,482,
335,480,
334,479,
335,478,
336,475,
336,475,
333,476,
330,475,
330,473,
333,469,
330,470,
328,469,
324,467,
324,467,
323,460,
327,463,
325,462,
322,462,
319,460,
321,459,
324,459,
322,459,
317,457,
315,455,
320,455,
319,454,
317,453,
313,453,
310,454,
311,451,
312,452,
310,453,
307,453,
304,454,
306,452,
308,453,
304,452,
298,452,
298,453,
298,451,
299,453,
296,453,
293,452,
292,454,
293,456,
296,457,
293,457,
290,458,
285,458,
287,457,
290,458,
289,460,
289,462,
288,462,
287,460,
291,461,
289,461,
288,463,
285,463,
285,462,
287,463,
287,464,
285,463,
280,462,
283,462,
285,462,
289,464,
285,465,
283,463,
285,465,
285,461,
289,463,
289,464,
286,462,
285,460,
287,460,
288,460,
287,459,
283,458,
286,458,
291,457,
291,455,
291,454,
289,455,
289,453,
291,454,
294,452,
291,452,
288,452,
286,453,
290,451,
289,451,
284,450,
280,450,
282,451,
287,450,
284,451,
289,451,
287,453,
283,456,
284,458,
287,458,
287,462,
287,467,
285,470,
288,473,
290,478,
293,483,
294,491,
294,499,
298,504,
303,511,
305,519,
310,528,
308,536,
312,542,
320,548,
326,556,
328,560,
335,567,
343,572,
346,574,
357,580,
365,583,
367,583,
372,585,
384,584,
394,584,
398,584,
403,581,
407,579,
415,575,
422,571,
426,570,
427,567,
430,564,
435,559,
439,556,
440,551,
437,547,
436,542,
438,537,
439,534,
438,531,
433,528,
431,524,
430,522,
431,517,
427,514,
418,510,
419,509,
419,508,
417,505,
415,504,
409,502,
404,500,
400,497,
397,495,
395,496,
392,496,
386,492,
384,488,
383,488,
381,487,
375,484,
366,484,
366,484,
365,481,
362,483,
357,483,
351,483,
350,483,
348,480,
347,482,
342,481,
334,481,
334,483,
331,480,
332,483,
328,485,
329,486,
323,488,
324,488,
326,488,
323,491,
320,492,
315,491,
320,490,
321,492,
324,493,
320,496,
319,494,
322,495,
326,497,
327,497,
325,496,
323,496,
326,496,
330,495,
328,495,
328,495,
327,496,
327,494,
332,493,
333,495,
329,492,
327,493,
332,489,
339,489,
334,490,
333,489,
330,487,
329,485,
332,483,
332,483,
330,483,
327,481,
327,479,
327,476,
327,477,
323,476,
320,476,
318,475,
323,472,
319,473,
314,473,
313,472,
314,472,
311,468,
314,471,
313,470,
307,470,
308,470,
306,466,
304,467,
306,468,
303,469,
299,466,
304,465,
302,465,
301,465,
298,466,
295,466,
299,466,
299,466,
294,469,
293,467,
289,468,
291,467,
291,467,
288,467,
285,468,
284,469,
285,466,
287,467,
284,468,
280,468,
276,469,
281,468,
281,468,
280,469,
281,468,
277,470,
281,469,
283,470,
281,471,
283,473,
281,473,
281,471,
285,472,
284,473,
284,474,
281,474,
282,474,
284,472,
282,471,
284,473,
282,472,
284,472,
286,470,
288,471,
289,471,
284,470,
287,472,
286,468,
287,467,
287,471,
289,469,
285,469,
288,466,
289,466,
285,466,
285,466,
284,464,
288,464,
289,466,
287,467,
285,468,
283,469,
289,470,
288,473,
289,477,
288,482,
286,488,
289,494,
293,500,
293,508,
293,517,
296,526,
300,533,
306,544,
311,553,
310,562,
315,574,
325,582,
331,592,
339,600,
343,608,
350,616,
357,621,
369,627,
377,631,
383,636,
391,640,
399,642,
410,642,
417,643,
421,645,
426,645,
433,643,
442,641,
447,639,
450,637,
451,634,
456,630,
458,623,
462,621,
462,618,
459,614,
462,609,
460,601,
463,602,
460,598,
458,597,
451,593,
455,589,
453,585,
451,583,
444,583,
438,580,
440,577,
435,577,
430,577,
423,576,
417,575,
417,573,
413,571,
410,571,
407,570,
402,569,
399,567,
397,563,
394,563,
389,560,
385,559,
384,555,
383,552,
375,553,
371,547,
369,546,
366,545,
368,540,
367,539,
360,539,
356,539,
355,536,
356,534,
353,537,
349,537,
345,538,
340,537,
344,535,
341,537,
338,538,
335,540,
334,540,
337,538,
334,539,
329,542,
327,542,
329,544,
328,541,
331,543,
327,543,
327,543,
327,544,
327,539,
332,542,
330,543,
328,545,
327,541,
332,541,
333,539,
333,539,
331,537,
330,536,
336,533,
336,531,
334,533,
330,529,
329,528,
335,526,
333,523,
332,523,
329,519,
325,518,
329,515,
328,514,
329,513,
322,509,
320,509,
320,504,
321,502,
318,498,
312,496,
308,498,
308,496,
309,494,
308,494,
304,493,
302,491,
299,490,
302,486,
301,488,
297,488,
294,488,
294,486,
294,484,
293,484,
290,484,
288,485,
288,484,
289,481,
290,483,
289,482,
284,482,
288,482,
289,479,
292,480,
290,482,
287,480,
289,481,
291,478,
291,480,
293,481,
289,481,
288,481,
291,480,
290,478,
290,482,
289,481,
283,482,
288,481,
287,481,
287,483,
284,481,
283,482,
288,480,
289,481,
286,481,
280,481,
281,480,
282,479,
284,480,
285,479,
280,479,
282,480,
286,478,
289,478,
282,478,
282,478,
277,478,
281,476,
285,477,
285,477,
283,477,
281,476,
280,475,
283,474,
282,476,
280,475,
279,475,
278,474,
283,473,
282,473,
280,474,
279,476,
280,474,
280,476,
284,478,
283,481,
277,485,
281,490,
281,491,
285,500,
286,509,
286,519,
285,529,
291,539,
295,551,
297,566,
299,582,
301,596,
310,609,
317,625,
321,640,
327,654,
334,669,
344,680,
355,696,
363,706,
371,718,
379,726,
389,735,
400,743,
409,749,
413,755,
418,758,
429,763,
439,762,
443,764,
444,763,
448,764,
456,762,
464,760,
468,760,
468,756,
468,754,
469,750,
474,745,
473,744,
472,740,
468,735,
468,730,
469,727,
465,723,
464,719,
457,714,
456,709,
458,705,
453,702,
450,700,
439,696,
440,693,
437,688,
436,688,
428,685,
421,681,
423,679,
419,673,
419,672,
412,669,
407,666,
399,662,
401,659,
397,653,
396,648,
389,644,
383,639,
382,633,
379,628,
377,624,
370,618,
362,615,
365,609,
364,607,
360,602,
353,601,
350,598,
353,594,
351,591,
349,592,
345,590,
341,590,
340,586,
342,588,
339,588,
335,585,
329,589,
329,588,
333,587,
336,590,
331,591,
329,588,
329,589,
334,589,
332,592,
331,591,
327,590,
329,589,
331,590,
332,589,
331,588,
328,587,
330,585,
332,581,
333,579,
331,578,
332,576,
331,574,
333,568,
333,567,
329,564,
326,560,
326,559,
328,552,
327,548,
326,546,
327,544,
323,538,
326,535,
325,530,
323,528,
320,526,
319,521,
319,517,
319,513,
317,510,
313,507,
309,505,
310,501,
309,499,
305,498,
301,496,
298,493,
301,490,
298,489,
297,488,
291,485,
289,485,
291,482,
293,481,
290,481,
288,479,
284,479,
286,478,
288,477,
284,478,
285,477,
283,475,
284,474,
287,473,
282,472,
285,473,
282,473,
285,473,
288,472,
288,471,
287,472,
284,472,
284,470,
287,469,
287,470,
289,470,
284,471,
287,471,
286,469,
290,472,
286,473,
286,472,
285,471,
293,470,
291,470,
290,471,
287,471,
284,469,
288,469,
291,470,
289,470,
284,469,
282,469,
286,466,
287,467,
281,466,
281,465,
277,464,
283,462,
280,459,
282,461,
277,461,
277,460,
278,459,
281,458,
281,458,
276,454,
278,456,
278,454,
281,453,
280,452,
279,453,
273,452,
277,449,
280,449,
282,449,
279,448,
278,447,
278,446,
280,445,
280,445,
277,446,
274,445,
273,445,
278,447,
277,449,
275,455,
273,461,
275,468,
280,475,
281,487,
279,499,
279,513,
283,530,
286,544,
293,565,
294,585,
300,605,
302,626,
314,647,
318,671,
323,694,
330,715,
334,737,
346,757,
359,778,
363,796,
371,814,
378,828,
390,843,
401,856,
409,865,
414,874,
421,881,
431,886,
439,890,
445,894,
449,894,
455,893,
461,890,
468,885,
473,883,
470,877,
470,874,
478,868,
478,858,
480,853,
476,847,
470,839,
474,830,
473,820,
470,814,
467,810,
459,799,
459,790,
461,782,
454,777,
448,770,
442,764,
439,758,
437,750,
432,747,
428,741,
421,735,
416,731,
419,723,
414,721,
410,717,
403,710,
396,704,
395,695,
391,691,
390,685,
385,678,
382,669,
381,661,
377,655,
373,650,
370,643,
362,635,
362,629,
358,622,
355,618,
347,613,
345,608,
345,604,
341,599,
338,596,
335,594,
333,593,
335,590,
337,587,
332,588,
330,585,
330,586,
331,583,
330,582,
333,583,
330,582,
326,583,
329,581,
333,582,
331,583,
329,582,
326,582,
329,579,
329,577,
329,577,
327,575,
327,575,
326,571,
328,567,
328,566,
326,562,
325,559,
323,556,
327,549,
327,545,
326,541,
322,537,
323,535,
323,527,
325,524,
323,518,
321,515,
314,510,
322,503,
320,501,
321,498,
317,494,
313,489,
316,484,
317,481,
316,477,
312,474,
310,471,
312,468,
310,463,
310,461,
308,457,
307,454,
310,450,
308,447,
306,445,
303,446,
297,442,
302,440,
302,438,
300,439,
294,436,
294,436,
294,433,
296,433,
297,431,
293,430,
290,429,
290,427,
293,425,
287,427,
288,425,
285,425,
284,424,
287,423,
286,423,
283,422,
280,422,
281,421,
282,420,
282,421,
279,422,
277,422,
276,421,
281,420,
282,423,
279,423,
277,421,
279,422,
279,419,
282,420,
281,421,
280,421,
279,421,
284,419,
283,418,
283,420,
282,421,
281,417,
284,418,
286,415,
283,416,
281,415,
278,415,
282,413,
283,411,
284,415,
281,414,
279,414,
282,411,
284,411,
281,411,
281,409,
281,410,
281,408,
285,408,
284,408,
278,406,
279,408,
278,406,
283,407,
285,407,
281,406,
277,405,
276,405,
282,404,
279,403,
277,404,
274,404,
277,403,
277,401,
275,401,
271,402,
269,400,
268,401,
271,399,
271,400,
270,402,
268,405,
269,407,
269,410,
272,418,
270,425,
269,434,
271,447,
273,456,
280,475,
280,493,
283,514,
282,536,
290,557,
294,583,
299,611,
302,638,
305,664,
317,689,
322,715,
331,744,
334,767,
341,791,
354,812,
362,831,
371,851,
376,868,
386,882,
394,893,
410,902,
416,911,
421,916,
429,920,
438,921,
449,920,
448,920,
455,914,
458,911,
462,905,
467,897,
469,891,
467,882,
468,872,
472,862,
472,849,
469,841,
468,831,
465,821,
466,810,
466,797,
461,788,
456,779,
453,768,
452,760,
449,749,
446,742,
440,736,
434,728,
432,720,
428,711,
426,707,
421,700,
414,694,
412,688,
411,677,
406,672,
400,665,
394,657,
388,649,
389,640,
383,631,
378,625,
377,616,
372,606,
373,600,
371,592,
365,586,
362,581,
356,576,
355,569,
354,564,
352,561,
346,558,
342,556,
343,551,
345,551,
343,551,
339,548,
337,549,
337,547,
338,546,
339,545,
334,546,
333,546,
332,546,
338,546,
334,547,
333,546,
330,546,
327,544,
331,544,
331,542,
330,543,
326,543,
327,541,
328,539,
328,537,
326,535,
324,534,
325,530,
327,526,
327,521,
329,517,
324,514,
326,508,
324,500,
329,498,
323,495,
324,490,
319,485,
326,478,
324,475,
324,469,
320,466,
318,460,
319,454,
318,449,
315,447,
315,442,
310,436,
312,433,
311,429,
305,426,
306,426,
302,421,
303,418,
307,414,
303,413,
301,411,
299,411,
300,407,
302,405,
298,405,
294,402,
293,401,
293,399,
296,398,
296,398,
292,395,
290,395,
290,392,
296,391,
290,390,
288,391,
287,391,
286,390,
291,388,
289,388,
287,388,
287,387,
287,387,
288,385,
287,387,
285,388,
280,387,
281,388,
281,385,
281,388,
280,389,
276,390,
276,389,
276,387,
278,388,
279,390,
274,390,
276,391,
281,390,
281,391,
282,390,
279,390,
278,389,
280,388,
278,387,
281,390,
279,388,
278,390,
280,389,
283,389,
279,390,
279,391,
277,391,
277,390,
280,390,
280,390,
274,388,
273,389,
273,386,
276,386,
276,387,
274,384,
271,384,
276,385,
276,384,
274,384,
273,383,
271,383,
272,383,
275,381,
273,383,
272,382,
272,382,
273,382,
276,379,
275,380,
274,380,
271,377,
273,378,
275,376,
276,378,
274,379,
270,379,
271,381,
271,381,
274,386,
272,392,
266,398,
272,406,
276,414,
279,431,
278,444,
279,462,
279,479,
285,499,
288,519,
292,543,
292,567,
295,592,
305,616,
311,640,
317,666,
322,688,
328,712,
339,732,
349,753,
357,771,
363,790,
371,806,
380,817,
392,827,
401,837,
407,842,
416,848,
425,849,
439,851,
439,850,
447,848,
451,844,
456,838,
464,830,
468,823,
468,815,
469,806,
471,795,
474,783,
474,773,
470,763,
468,753,
464,738,
466,727,
464,718,
459,707,
455,698,
450,685,
448,674,
446,664,
440,655,
432,647,
427,639,
428,626,
424,622,
418,613,
412,606,
406,597,
408,588,
404,582,
396,574,
389,567,
385,559,
382,552,
378,546,
374,539,
367,534,
363,527,
362,522,
360,516,
356,511,
354,508,
347,504,
345,500,
346,497,
343,495,
336,494,
335,493,
338,491,
335,491,
328,490,
326,488,
324,490,
325,490,
327,490,
326,492,
323,493,
321,495,
318,493,
322,494,
323,497,
323,498,
322,500,
321,500,
325,499,
325,502,
325,501,
321,500,
325,498,
329,498,
328,497,
329,496,
326,495,
327,492,
328,487,
330,486,
329,484,
326,478,
327,476,
327,468,
327,466,
326,464,
325,460,
321,454,
324,449,
326,446,
323,443,
319,439,
315,432,
319,428,
319,423,
318,419,
314,416,
311,411,
311,407,
311,401,
308,400,
305,397,
303,394,
302,389,
306,386,
301,384,
303,381,
298,379,
298,375,
301,376,
299,373,
297,371,
295,371,
294,370,
296,370,
295,369,
293,370,
290,369,
289,367,
290,366,
289,369,
287,369,
286,369,
282,369,
285,369,
284,372,
283,373,
282,373,
280,371,
281,371,
280,373,
280,375,
278,374,
280,374,
280,372,
281,375,
282,378,
278,377,
278,376,
282,374,
283,378,
282,379,
283,379,
281,377,
283,376,
283,378,
283,380,
281,379,
280,378,
280,377,
283,379,
282,381,
282,381,
279,381,
281,382,
282,381,
282,383,
278,384,
274,385,
278,383,
283,384,
282,384,
279,382,
279,385,
280,381,
283,380,
284,380,
279,380,
276,381,
277,379,
284,380,
280,379,
279,381,
275,383,
277,383,
280,384,
276,388,
280,392,
273,397,
278,405,
284,411,
278,420,
282,434,
277,446,
283,461,
286,473,
289,489,
292,509,
293,526,
299,545,
303,561,
314,582,
317,602,
323,619,
327,634,
338,649,
344,663,
351,677,
357,688,
363,698,
375,706,
383,713,
389,719,
392,723,
401,724,
409,723,
419,723,
422,719,
425,717,
429,711,
436,702,
440,694,
444,686,
444,677,
446,668,
447,659,
450,649,
450,640,
443,629,
442,621,
440,610,
443,600,
440,591,
435,580,
428,572,
427,561,
429,553,
427,547,
422,538,
414,532,
413,522,
413,515,
408,511,
403,504,
398,499,
395,493,
395,485,
388,480,
383,475,
373,471,
372,467,
369,460,
365,456,
359,453,
354,450,
354,446,
349,439,
345,440,
342,438,
336,438,
332,439,
332,437,
328,439,
327,440,
322,441,
316,443,
321,443,
320,444,
319,449,
319,452,
316,454,
320,456,
320,460,
322,463,
320,467,
320,470,
322,470,
327,474,
324,477,
322,478,
322,481,
326,481,
327,483,
328,486,
326,483,
325,484,
326,483,
331,482,
331,482,
329,482,
326,478,
327,474,
330,472,
329,469,
328,469,
322,465,
324,461,
327,457,
326,455,
324,451,
323,447,
321,445,
323,439,
324,437,
319,434,
317,430,
317,428,
314,423,
316,422,
313,418,
310,416,
309,414,
311,407,
311,405,
310,404,
304,403,
297,398,
303,395,
305,394,
303,394,
300,392,
297,391,
300,390,
299,388,
296,389,
294,389,
291,389,
292,388,
295,388,
292,389,
290,391,
289,389,
290,389,
293,392,
290,392,
285,391,
286,394,
285,393,
290,395,
286,396,
283,396,
279,397,
277,398,
282,399,
280,398,
278,400,
274,400,
276,400,
279,399,
278,400,
276,402,
273,402,
274,401,
278,401,
276,402,
273,403,
274,405,
275,403,
278,402,
278,404,
277,404,
276,403,
277,403,
277,400,
280,403,
277,403,
276,404,
276,402,
277,400,
278,400,
276,402,
274,401,
273,400,
275,400,
275,399,
273,399,
271,399,
270,400,
272,398,
275,401,
272,402,
272,404,
268,406,
272,408,
274,411,
276,416,
273,423,
275,428,
278,436,
283,444,
282,455,
284,463,
285,476,
291,486,
300,498,
302,511,
308,523,
309,536,
317,548,
325,559,
330,571,
337,581,
342,592,
350,600,
364,606,
372,611,
377,618,
383,620,
390,624,
402,623,
407,623,
415,625,
419,623,
427,623,
432,617,
440,615,
442,610,
443,605,
447,598,
448,589,
453,584,
452,578,
453,572,
452,565,
454,557,
453,549,
453,544,
447,537,
444,529,
446,523,
440,515,
438,511,
435,504,
427,499,
429,495,
424,490,
418,485,
413,482,
405,479,
406,474,
399,469,
394,469,
387,466,
383,463,
380,459,
378,456,
374,453,
369,449,
364,450,
363,447,
359,446,
356,445,
352,445,
344,444,
342,442,
